cas[s]  ekg[mV]
0.00000 0.05104
0.00200 0.09605
0.00400 0.00926
0.00600 -0.02336
0.00800 -0.02280
0.01000 -0.04633
0.01200 0.02562
0.01400 -0.05270
0.01600 -0.00717
0.01800 -0.02219
0.02000 -0.10310
0.02200 0.02613
0.02400 -0.00399
0.02600 0.04329
0.02800 0.00229
0.03000 -0.01566
0.03200 0.00303
0.03400 -0.00439
0.03600 -0.04286
0.03800 0.01737
0.04000 0.01640
0.04200 -0.07860
0.04400 -0.01982
0.04600 -0.00057
0.04800 0.01115
0.05000 -0.03759
0.05200 0.09319
0.05400 -0.06361
0.05600 -0.00085
0.05800 -0.05547
0.06000 -0.01385
0.06200 -0.00736
0.06400 0.03153
0.06600 -0.03462
0.06800 0.02024
0.07000 0.02687
0.07200 -0.00090
0.07400 0.07158
0.07600 -0.04020
0.07800 0.03576
0.08000 -0.16158
0.08200 0.06490
0.08400 0.05352
0.08600 0.09235
0.08800 -0.01915
0.09000 0.06281
0.09200 -0.01698
0.09400 0.10229
0.09600 0.03317
0.09800 0.10574
0.10000 -0.08098
0.10200 -0.09519
0.10400 -0.08210
0.10600 -0.10931
0.10800 0.03155
0.11000 0.05314
0.11200 0.00638
0.11400 -0.01209
0.11600 0.07939
0.11800 -0.08130
0.12000 0.00804
0.12200 -0.05337
0.12400 0.00589
0.12600 -0.09792
0.12800 0.04320
0.13000 0.12467
0.13200 -0.09310
0.13400 0.02489
0.13600 -0.04870
0.13800 -0.07367
0.14000 -0.00191
0.14200 -0.00907
0.14400 0.00930
0.14600 0.11731
0.14800 -0.02574
0.15000 -0.03693
0.15200 -0.02197
0.15400 0.06046
0.15600 -0.16659
0.15800 -0.05445
0.16000 0.10039
0.16200 0.02552
0.16400 0.09705
0.16600 0.00582
0.16800 0.11552
0.17000 -0.02409
0.17200 -0.08354
0.17400 0.05551
0.17600 -0.03452
0.17800 0.02331
0.18000 0.00240
0.18200 0.06193
0.18400 0.00724
0.18600 -0.07375
0.18800 0.02118
0.19000 -0.02391
0.19200 0.03551
0.19400 -0.16272
0.19600 -0.12788
0.19800 0.14022
0.20000 0.03753
0.20200 0.01633
0.20400 0.08762
0.20600 -0.10742
0.20800 0.02735
0.21000 0.10857
0.21200 0.02829
0.21400 0.01720
0.21600 0.04285
0.21800 -0.10316
0.22000 0.04566
0.22200 0.06375
0.22400 0.07104
0.22600 -0.05126
0.22800 0.09108
0.23000 -0.03429
0.23200 -0.01774
0.23400 0.03233
0.23600 0.05809
0.23800 -0.00029
0.24000 -0.00710
0.24200 -0.03335
0.24400 0.01919
0.24600 -0.00699
0.24800 0.06567
0.25000 -0.05190
0.25200 0.08055
0.25400 -0.04089
0.25600 0.04972
0.25800 -0.01815
0.26000 0.05829
0.26200 -0.02102
0.26400 0.00633
0.26600 -0.03155
0.26800 0.01746
0.27000 0.02305
0.27200 -0.08455
0.27400 -0.02027
0.27600 -0.07912
0.27800 0.02838
0.28000 0.00488
0.28200 -0.12690
0.28400 0.18507
0.28600 0.38955
0.28800 0.89319
0.29000 1.40701
0.29200 1.44732
0.29400 0.94794
0.29600 0.42004
0.29800 0.18970
0.30000 0.02046
0.30200 0.00662
0.30400 0.01393
0.30600 -0.06539
0.30800 0.06645
0.31000 0.01223
0.31200 0.01572
0.31400 0.00361
0.31600 -0.02678
0.31800 -0.02326
0.32000 0.04942
0.32200 0.02741
0.32400 0.07108
0.32600 0.00824
0.32800 -0.03420
0.33000 0.00402
0.33200 -0.04406
0.33400 0.02977
0.33600 0.08273
0.33800 0.04658
0.34000 -0.09383
0.34200 0.00173
0.34400 0.03946
0.34600 -0.07475
0.34800 0.02500
0.35000 -0.01061
0.35200 0.06928
0.35400 -0.10485
0.35600 -0.10043
0.35800 -0.01025
0.36000 -0.02368
0.36200 -0.05967
0.36400 -0.03594
0.36600 -0.08092
0.36800 0.08467
0.37000 -0.09016
0.37200 -0.01068
0.37400 0.01679
0.37600 -0.06425
0.37800 -0.01589
0.38000 -0.08535
0.38200 -0.08948
0.38400 -0.13126
0.38600 0.04507
0.38800 0.00469
0.39000 -0.01021
0.39200 -0.03627
0.39400 -0.04186
0.39600 -0.04741
0.39800 -0.18809
0.40000 0.06382
0.40200 -0.01749
0.40400 0.08641
0.40600 0.05779
0.40800 0.03231
0.41000 -0.04171
0.41200 0.03051
0.41400 -0.11276
0.41600 -0.01115
0.41800 0.08041
0.42000 0.01406
0.42200 0.01870
0.42400 0.04373
0.42600 -0.06664
0.42800 -0.01295
0.43000 -0.14088
0.43200 0.02973
0.43400 0.04460
0.43600 0.09987
0.43800 0.00633
0.44000 -0.08712
0.44200 0.05886
0.44400 0.04923
0.44600 0.00562
0.44800 0.09045
0.45000 -0.02804
0.45200 0.02446
0.45400 0.13086
0.45600 0.03599
0.45800 -0.04163
0.46000 -0.02385
0.46200 -0.01662
0.46400 -0.03444
0.46600 -0.01567
0.46800 0.08353
0.47000 -0.00362
0.47200 -0.02664
0.47400 0.09208
0.47600 -0.12020
0.47800 -0.03833
0.48000 0.00504
0.48200 -0.03128
0.48400 0.01336
0.48600 0.07342
0.48800 -0.01201
0.49000 0.03090
0.49200 0.05050
0.49400 0.05042
0.49600 -0.01836
0.49800 0.01631
0.50000 -0.04260
0.50200 0.02952
0.50400 -0.02368
0.50600 0.01745
0.50800 0.00966
0.51000 0.09995
0.51200 -0.05804
0.51400 0.02037
0.51600 0.05540
0.51800 -0.14711
0.52000 -0.05772
0.52200 -0.03014
0.52400 0.04819
0.52600 -0.00765
0.52800 -0.03881
0.53000 -0.01218
0.53200 0.04708
0.53400 0.01722
0.53600 0.02524
0.53800 -0.02000
0.54000 -0.02829
0.54200 -0.02715
0.54400 0.03293
0.54600 0.03662
0.54800 0.03373
0.55000 -0.02434
0.55200 -0.07031
0.55400 -0.03029
0.55600 0.01071
0.55800 -0.00206
0.56000 0.05290
0.56200 -0.12111
0.56400 0.00439
0.56600 -0.03289
0.56800 0.08614
0.57000 -0.08309
0.57200 -0.07041
0.57400 -0.01582
0.57600 0.04441
0.57800 -0.01580
0.58000 -0.00647
0.58200 0.00708
0.58400 0.00043
0.58600 -0.14022
0.58800 0.05227
0.59000 0.04678
0.59200 -0.04977
0.59400 0.05164
0.59600 -0.05406
0.59800 0.02146
0.60000 -0.00244
0.60200 -0.05986
0.60400 -0.06711
0.60600 -0.02939
0.60800 -0.04429
0.61000 -0.00667
0.61200 0.04659
0.61400 0.00549
0.61600 0.02455
0.61800 -0.02294
0.62000 -0.05444
0.62200 0.02217
0.62400 0.00189
0.62600 -0.13412
0.62800 -0.05782
0.63000 -0.00530
0.63200 0.04283
0.63400 0.06988
0.63600 -0.00778
0.63800 -0.04947
0.64000 0.06545
0.64200 0.00716
0.64400 -0.06612
0.64600 0.01593
0.64800 0.05556
0.65000 -0.04576
0.65200 0.01556
0.65400 0.08077
0.65600 -0.07146
0.65800 0.02189
0.66000 0.00415
0.66200 -0.00893
0.66400 -0.03200
0.66600 0.03531
0.66800 0.18776
0.67000 0.03115
0.67200 0.07067
0.67400 0.00467
0.67600 0.03383
0.67800 0.05791
0.68000 -0.01587
0.68200 -0.15169
0.68400 -0.00726
0.68600 0.06722
0.68800 0.01429
0.69000 -0.00670
0.69200 0.00944
0.69400 -0.10075
0.69600 0.04474
0.69800 0.04547
0.70000 0.03884
0.70200 0.00649
0.70400 0.02479
0.70600 0.06614
0.70800 -0.04592
0.71000 -0.06587
0.71200 -0.03465
0.71400 -0.05995
0.71600 0.02413
0.71800 0.00852
0.72000 -0.08492
0.72200 -0.01572
0.72400 -0.07610
0.72600 -0.00683
0.72800 0.03333
0.73000 -0.04325
0.73200 -0.03683
0.73400 -0.12799
0.73600 -0.04428
0.73800 -0.08647
0.74000 -0.01248
0.74200 0.07876
0.74400 0.04269
0.74600 0.05352
0.74800 -0.00341
0.75000 -0.04204
0.75200 -0.06346
0.75400 -0.03130
0.75600 0.04103
0.75800 0.16041
0.76000 -0.02445
0.76200 -0.00680
0.76400 -0.09620
0.76600 0.01218
0.76800 0.00144
0.77000 -0.03775
0.77200 0.07709
0.77400 -0.02938
0.77600 0.05034
0.77800 0.01648
0.78000 -0.10261
0.78200 -0.04790
0.78400 -0.03589
0.78600 0.02234
0.78800 0.01059
0.79000 0.08321
0.79200 0.05556
0.79400 0.02913
0.79600 -0.09875
0.79800 0.02921
0.80000 -0.00413
0.80200 0.00597
0.80400 0.00325
0.80600 0.03474
0.80800 -0.02925
0.81000 -0.06281
0.81200 0.00413
0.81400 -0.04157
0.81600 0.03396
0.81800 -0.09109
0.82000 0.01424
0.82200 -0.03609
0.82400 -0.08840
0.82600 -0.04796
0.82800 0.12371
0.83000 0.04045
0.83200 -0.03650
0.83400 0.06010
0.83600 -0.03415
0.83800 0.06297
0.84000 0.01106
0.84200 0.00012
0.84400 -0.03596
0.84600 0.00121
0.84800 0.05027
0.85000 0.11285
0.85200 0.02393
0.85400 -0.06540
0.85600 -0.07551
0.85800 0.08841
0.86000 -0.02406
0.86200 0.05192
0.86400 0.08962
0.86600 0.11400
0.86800 0.32971
0.87000 0.69286
0.87200 1.35618
0.87400 1.37910
0.87600 1.08723
0.87800 0.36482
0.88000 0.19068
0.88200 0.08822
0.88400 0.09984
0.88600 -0.03992
0.88800 0.01930
0.89000 -0.01181
0.89200 0.06827
0.89400 -0.06883
0.89600 0.08905
0.89800 0.05249
0.90000 0.02300
0.90200 -0.00748
0.90400 -0.09636
0.90600 -0.04109
0.90800 -0.05528
0.91000 -0.04891
0.91200 0.00408
0.91400 -0.05484
0.91600 -0.00603
0.91800 0.00288
0.92000 0.00252
0.92200 -0.05940
0.92400 -0.02980
0.92600 -0.06182
0.92800 0.00493
0.93000 0.00871
0.93200 0.02045
0.93400 -0.04946
0.93600 -0.05964
0.93800 0.05068
0.94000 0.05304
0.94200 -0.06449
0.94400 -0.03735
0.94600 0.01654
0.94800 0.00398
0.95000 -0.07960
0.95200 -0.04890
0.95400 -0.01312
0.95600 -0.06752
0.95800 -0.01550
0.96000 -0.03648
0.96200 0.15836
0.96400 0.05890
0.96600 -0.02724
0.96800 -0.07507
0.97000 -0.07852
0.97200 -0.08823
0.97400 -0.01346
0.97600 -0.04353
0.97800 0.11823
0.98000 0.02863
0.98200 0.12287
0.98400 -0.05271
0.98600 0.00020
0.98800 0.07285
0.99000 0.00642
0.99200 -0.04422
0.99400 0.09222
0.99600 -0.00941
0.99800 -0.13702
1.00000 -0.04611
1.00200 -0.03234
1.00400 0.04740
1.00600 0.00600
1.00800 0.02716
1.01000 -0.01090
1.01200 -0.02134
1.01400 -0.03310
1.01600 -0.01730
1.01800 -0.02247
1.02000 -0.00027
1.02200 -0.03985
1.02400 -0.00679
1.02600 -0.04504
1.02800 0.00023
1.03000 -0.11026
1.03200 0.02448
1.03400 -0.06225
1.03600 0.01653
1.03800 0.00653
1.04000 0.01851
1.04200 -0.11483
1.04400 0.00624
1.04600 0.06986
1.04800 0.00111
1.05000 -0.05666
1.05200 0.00866
1.05400 -0.00232
1.05600 -0.12090
1.05800 -0.01355
1.06000 0.02882
1.06200 -0.01080
1.06400 0.11498
1.06600 -0.03910
1.06800 -0.08934
1.07000 -0.00414
1.07200 0.01718
1.07400 -0.08021
1.07600 -0.01282
1.07800 -0.02543
1.08000 -0.08313
1.08200 0.02575
1.08400 -0.04214
1.08600 0.05372
1.08800 0.08857
1.09000 0.03176
1.09200 0.03863
1.09400 0.04219
1.09600 0.06373
1.09800 -0.01052
1.10000 -0.03949
1.10200 -0.08565
1.10400 0.06877
1.10600 0.03615
1.10800 0.00177
1.11000 -0.04246
1.11200 -0.02109
1.11400 -0.11141
1.11600 -0.00279
1.11800 0.02584
1.12000 -0.12584
1.12200 -0.04114
1.12400 -0.02753
1.12600 0.05999
1.12800 0.00128
1.13000 0.12548
1.13200 0.03561
1.13400 -0.00653
1.13600 0.02910
1.13800 -0.05176
1.14000 -0.05675
1.14200 -0.02080
1.14400 0.12897
1.14600 0.06082
1.14800 0.03129
1.15000 0.07406
1.15200 0.05396
1.15400 -0.00969
1.15600 -0.00961
1.15800 -0.02345
1.16000 -0.01608
1.16200 0.00907
1.16400 -0.09189
1.16600 -0.05953
1.16800 -0.01866
1.17000 0.08202
1.17200 0.04396
1.17400 -0.01439
1.17600 -0.02427
1.17800 0.01001
1.18000 -0.09941
1.18200 -0.11461
1.18400 0.10751
1.18600 0.03162
1.18800 0.02384
1.19000 0.03109
1.19200 0.04608
1.19400 0.08350
1.19600 0.05882
1.19800 0.05225
1.20000 -0.00681
1.20200 -0.05222
1.20400 -0.04833
1.20600 -0.00563
1.20800 0.07765
1.21000 0.01156
1.21200 0.01133
1.21400 -0.04923
1.21600 -0.12272
1.21800 -0.00264
1.22000 -0.02246
1.22200 -0.04826
1.22400 -0.09885
1.22600 0.05563
1.22800 -0.04266
1.23000 0.07089
1.23200 -0.05078
1.23400 -0.09030
1.23600 0.02098
1.23800 0.08703
1.24000 0.01151
1.24200 0.02468
1.24400 0.00800
1.24600 0.09637
1.24800 0.00334
1.25000 -0.07136
1.25200 0.03026
1.25400 0.07478
1.25600 -0.03656
1.25800 -0.02923
1.26000 0.02113
1.26200 0.01834
1.26400 -0.00120
1.26600 -0.05865
1.26800 -0.01131
1.27000 -0.16263
1.27200 -0.03285
1.27400 0.15521
1.27600 0.05527
1.27800 -0.03588
1.28000 0.12471
1.28200 -0.04447
1.28400 0.06814
1.28600 -0.02192
1.28800 0.01118
1.29000 -0.11625
1.29200 -0.06090
1.29400 -0.02279
1.29600 0.14584
1.29800 0.10079
1.30000 0.01079
1.30200 0.09253
1.30400 -0.05411
1.30600 -0.01232
1.30800 0.00805
1.31000 0.00887
1.31200 -0.08864
1.31400 0.05658
1.31600 -0.00200
1.31800 -0.03134
1.32000 -0.00115
1.32200 -0.01601
1.32400 -0.09680
1.32600 -0.06618
1.32800 -0.02407
1.33000 0.03174
1.33200 -0.05877
1.33400 -0.02628
1.33600 0.12393
1.33800 0.00198
1.34000 -0.03735
1.34200 -0.06526
1.34400 -0.00320
1.34600 0.17215
1.34800 0.00675
1.35000 -0.03516
1.35200 0.02078
1.35400 -0.10922
1.35600 0.09435
1.35800 -0.04549
1.36000 0.04018
1.36200 -0.03863
1.36400 -0.01053
1.36600 -0.15313
1.36800 0.02371
1.37000 -0.08533
1.37200 -0.12928
1.37400 0.02719
1.37600 -0.02090
1.37800 -0.04780
1.38000 0.04759
1.38200 0.10817
1.38400 0.02155
1.38600 0.02123
1.38800 -0.03505
1.39000 -0.02382
1.39200 -0.06240
1.39400 -0.03755
1.39600 0.00845
1.39800 -0.05515
1.40000 0.06545
1.40200 -0.14908
1.40400 0.01959
1.40600 0.00357
1.40800 -0.05608
1.41000 0.00041
1.41200 0.00331
1.41400 -0.01515
1.41600 0.08440
1.41800 -0.09797
1.42000 -0.02245
1.42200 -0.08257
1.42400 0.04507
1.42600 0.02817
1.42800 -0.02936
1.43000 0.00982
1.43200 0.06904
1.43400 -0.15573
1.43600 -0.07433
1.43800 -0.00705
1.44000 -0.03480
1.44200 0.03272
1.44400 0.01628
1.44600 0.05306
1.44800 0.09031
1.45000 0.21313
1.45200 0.49561
1.45400 1.10130
1.45600 1.54995
1.45800 1.27622
1.46000 0.73813
1.46200 0.26901
1.46400 0.06771
1.46600 0.03697
1.46800 0.06480
1.47000 -0.00376
1.47200 0.02997
1.47400 -0.04857
1.47600 -0.04595
1.47800 -0.14088
1.48000 0.01585
1.48200 0.13775
1.48400 -0.00057
1.48600 -0.00702
1.48800 -0.07033
1.49000 0.15565
1.49200 0.01328
1.49400 0.07315
1.49600 -0.03466
1.49800 -0.01780
1.50000 0.03111
1.50200 -0.00730
1.50400 0.02616
1.50600 -0.05402
1.50800 -0.04992
1.51000 0.00872
1.51200 -0.00700
1.51400 0.05032
1.51600 -0.06491
1.51800 0.03959
1.52000 -0.03685
1.52200 -0.04905
1.52400 -0.02191
1.52600 -0.03104
1.52800 -0.02201
1.53000 -0.06452
1.53200 0.05762
1.53400 -0.05081
1.53600 0.04975
1.53800 0.06407
1.54000 -0.12216
1.54200 -0.06358
1.54400 0.00084
1.54600 -0.08115
1.54800 0.10249
1.55000 0.09411
1.55200 -0.04052
1.55400 0.08612
1.55600 -0.03632
1.55800 -0.08234
1.56000 -0.00120
1.56200 -0.00994
1.56400 0.06426
1.56600 0.03570
1.56800 0.02704
1.57000 -0.03271
1.57200 0.01979
1.57400 -0.05514
1.57600 0.02477
1.57800 0.04482
1.58000 -0.01379
1.58200 0.06656
1.58400 0.01029
1.58600 0.02580
1.58800 -0.00697
1.59000 0.01503
1.59200 -0.04309
1.59400 0.06511
1.59600 0.09347
1.59800 -0.06458
1.60000 0.02349
1.60200 -0.00056
1.60400 -0.04933
1.60600 -0.00845
1.60800 -0.01863
1.61000 0.08098
1.61200 0.02251
1.61400 -0.07684
1.61600 -0.01095
1.61800 0.00491
1.62000 0.00677
1.62200 0.10404
1.62400 -0.01397
1.62600 -0.01154
1.62800 -0.04177
1.63000 -0.04314
1.63200 0.07466
1.63400 0.05652
1.63600 -0.08597
1.63800 -0.02594
1.64000 0.08989
1.64200 0.01575
1.64400 0.00871
1.64600 0.08523
1.64800 -0.03167
1.65000 -0.00095
1.65200 -0.07436
1.65400 0.03818
1.65600 0.02818
1.65800 0.07449
1.66000 -0.00068
1.66200 -0.06335
1.66400 0.03687
1.66600 -0.02406
1.66800 -0.14628
1.67000 0.05348
1.67200 0.02109
1.67400 0.06170
1.67600 0.08967
1.67800 -0.00305
1.68000 0.04612
1.68200 0.13236
1.68400 0.06627
1.68600 0.07709
1.68800 0.05367
1.69000 -0.02260
1.69200 -0.09151
1.69400 -0.11144
1.69600 0.01563
1.69800 0.00700
1.70000 0.05232
1.70200 0.00564
1.70400 0.04518
1.70600 0.12585
1.70800 0.01717
1.71000 -0.03931
1.71200 -0.02664
1.71400 -0.02084
1.71600 -0.13015
1.71800 0.03957
1.72000 -0.01311
1.72200 -0.11521
1.72400 0.00185
1.72600 0.03025
1.72800 0.01856
1.73000 -0.08607
1.73200 -0.02686
1.73400 0.01601
1.73600 -0.02978
1.73800 -0.07176
1.74000 0.02094
1.74200 -0.02463
1.74400 0.01214
1.74600 -0.03946
1.74800 0.04730
1.75000 -0.01695
1.75200 0.00181
1.75400 0.03071
1.75600 0.05071
1.75800 -0.07232
1.76000 0.03445
1.76200 0.01558
1.76400 0.06393
1.76600 -0.04424
1.76800 0.05431
1.77000 0.03826
1.77200 -0.04277
1.77400 -0.02118
1.77600 0.05830
1.77800 -0.01019
1.78000 0.00999
1.78200 -0.00307
1.78400 -0.11731
1.78600 -0.03704
1.78800 -0.03086
1.79000 -0.04180
1.79200 -0.16487
1.79400 -0.02395
1.79600 0.00278
1.79800 0.02512
1.80000 -0.06228
1.80200 0.04161
1.80400 0.00068
1.80600 0.06233
1.80800 -0.11759
1.81000 -0.03492
1.81200 -0.04621
1.81400 -0.10319
1.81600 -0.03248
1.81800 -0.02647
1.82000 -0.04299
1.82200 -0.01215
1.82400 -0.03156
1.82600 -0.06262
1.82800 0.05958
1.83000 0.06714
1.83200 -0.05478
1.83400 -0.03721
1.83600 -0.01103
1.83800 0.03403
1.84000 0.07259
1.84200 0.03086
1.84400 0.06090
1.84600 0.02924
1.84800 0.04866
1.85000 -0.06457
1.85200 0.04709
1.85400 0.04638
1.85600 -0.07355
1.85800 -0.03303
1.86000 0.06356
1.86200 0.08398
1.86400 0.14900
1.86600 0.04516
1.86800 -0.02336
1.87000 -0.01222
1.87200 0.03712
1.87400 -0.01502
1.87600 0.10285
1.87800 -0.12239
1.88000 -0.11847
1.88200 0.03696
1.88400 0.01296
1.88600 0.09108
1.88800 -0.02353
1.89000 0.02862
1.89200 0.07597
1.89400 -0.00615
1.89600 0.01638
1.89800 0.04089
1.90000 0.07386
1.90200 -0.07204
1.90400 -0.11626
1.90600 -0.02471
1.90800 -0.01432
1.91000 -0.02799
1.91200 0.03499
1.91400 0.13956
1.91600 -0.01423
1.91800 -0.04670
1.92000 0.05637
1.92200 0.01817
1.92400 -0.06024
1.92600 0.08795
1.92800 0.07158
1.93000 -0.02770
1.93200 -0.06014
1.93400 0.06742
1.93600 -0.10135
1.93800 0.06868
1.94000 0.00077
1.94200 -0.01934
1.94400 0.05528
1.94600 -0.03496
1.94800 -0.06938
1.95000 -0.01448
1.95200 0.15745
1.95400 0.08397
1.95600 -0.10026
1.95800 -0.12627
1.96000 0.00708
1.96200 0.07468
1.96400 0.09118
1.96600 -0.04773
1.96800 -0.03472
1.97000 0.00684
1.97200 0.04911
1.97400 -0.00592
1.97600 0.00652
1.97800 0.05327
1.98000 0.06916
1.98200 -0.04832
1.98400 -0.02565
1.98600 0.03620
1.98800 0.00203
1.99000 0.05456
1.99200 -0.01955
1.99400 -0.03083
1.99600 0.07847
1.99800 -0.15262
2.00000 0.04392
2.00200 0.06365
2.00400 -0.04282
2.00600 0.04688
2.00800 -0.03264
2.01000 -0.01425
2.01200 -0.08844
2.01400 0.07391
2.01600 0.07210
2.01800 -0.05427
2.02000 -0.04266
2.02200 0.00322
2.02400 -0.03544
2.02600 0.04850
2.02800 -0.02362
2.03000 -0.03014
2.03200 0.17223
2.03400 0.41082
2.03600 0.95871
2.03800 1.45823
2.04000 1.30644
2.04200 0.69569
2.04400 0.25323
2.04600 0.07120
2.04800 0.02001
2.05000 0.02222
2.05200 0.00790
2.05400 0.06458
2.05600 0.00734
2.05800 -0.02847
2.06000 0.08951
2.06200 -0.04724
2.06400 -0.02409
2.06600 0.03795
2.06800 -0.00183
2.07000 -0.06869
2.07200 0.01236
2.07400 0.04201
2.07600 0.00026
2.07800 -0.02624
2.08000 0.04865
2.08200 -0.05366
2.08400 0.03877
2.08600 -0.11136
2.08800 0.03924
2.09000 0.13758
2.09200 0.02159
2.09400 -0.01530
2.09600 -0.02970
2.09800 0.09116
2.10000 0.06820
2.10200 0.07625
2.10400 0.00368
2.10600 -0.06913
2.10800 0.01917
2.11000 -0.00894
2.11200 0.00618
2.11400 0.08128
2.11600 0.04065
2.11800 0.03936
2.12000 -0.02992
2.12200 0.04009
2.12400 -0.06950
2.12600 0.04382
2.12800 -0.05585
2.13000 -0.01524
2.13200 -0.08238
2.13400 0.03977
2.13600 -0.06800
2.13800 -0.03754
2.14000 0.09478
2.14200 -0.02442
2.14400 -0.05598
2.14600 -0.07579
2.14800 -0.00222
2.15000 -0.02394
2.15200 0.00658
2.15400 -0.08314
2.15600 0.00506
2.15800 0.01272
2.16000 -0.10337
2.16200 -0.01112
2.16400 -0.04022
2.16600 -0.06095
2.16800 -0.00415
2.17000 0.11547
2.17200 0.09345
2.17400 -0.03711
2.17600 0.00630
2.17800 0.04124
2.18000 -0.02294
2.18200 0.05556
2.18400 -0.04975
2.18600 0.14471
2.18800 -0.01880
2.19000 -0.12000
2.19200 0.06926
2.19400 -0.03247
2.19600 0.08886
2.19800 -0.00946
2.20000 0.06420
2.20200 0.02026
2.20400 0.04519
2.20600 0.07800
2.20800 -0.06619
2.21000 -0.03156
2.21200 -0.09163
2.21400 -0.01622
2.21600 0.04524
2.21800 -0.01317
2.22000 0.01863
2.22200 0.04294
2.22400 -0.05746
2.22600 -0.00163
2.22800 -0.00745
2.23000 -0.07423
2.23200 -0.09147
2.23400 0.02542
2.23600 -0.12264
2.23800 0.05073
2.24000 0.02477
2.24200 -0.03949
2.24400 0.03802
2.24600 -0.05538
2.24800 0.03524
2.25000 -0.04269
2.25200 -0.07710
2.25400 0.04348
2.25600 0.06990
2.25800 -0.02600
2.26000 -0.11651
2.26200 0.09868
2.26400 -0.06591
2.26600 0.05762
2.26800 -0.04598
2.27000 -0.05801
2.27200 0.02316
2.27400 0.03109
2.27600 -0.05264
2.27800 -0.02683
2.28000 0.00660
2.28200 -0.03797
2.28400 0.04362
2.28600 0.02934
2.28800 -0.08827
2.29000 -0.01563
2.29200 -0.00690
2.29400 0.10567
2.29600 0.02240
2.29800 -0.03699
2.30000 0.02050
2.30200 0.01656
2.30400 0.01036
2.30600 0.00276
2.30800 -0.01157
2.31000 -0.01009
2.31200 -0.01403
2.31400 0.01705
2.31600 0.04715
2.31800 0.03235
2.32000 0.08147
2.32200 0.04563
2.32400 0.08807
2.32600 0.05047
2.32800 0.07257
2.33000 -0.07094
2.33200 -0.10190
2.33400 -0.09308
2.33600 0.03123
2.33800 -0.14374
2.34000 -0.03605
2.34200 0.02790
2.34400 -0.03465
2.34600 0.00259
2.34800 -0.06667
2.35000 0.00612
2.35200 -0.01503
2.35400 -0.07941
2.35600 0.06756
2.35800 -0.08837
2.36000 -0.08579
2.36200 -0.06233
2.36400 0.02949
2.36600 -0.06070
2.36800 -0.05981
2.37000 -0.01515
2.37200 0.04321
2.37400 -0.00101
2.37600 -0.01820
2.37800 -0.09348
2.38000 0.02010
2.38200 -0.12035
2.38400 0.01652
2.38600 -0.00649
2.38800 -0.07782
2.39000 0.01179
2.39200 -0.01871
2.39400 0.01393
2.39600 -0.14213
2.39800 0.01434
2.40000 0.03101
2.40200 -0.03420
2.40400 0.02049
2.40600 -0.19495
2.40800 0.02538
2.41000 0.05230
2.41200 0.02674
2.41400 0.04170
2.41600 -0.00592
2.41800 0.08843
2.42000 0.01092
2.42200 -0.02504
2.42400 -0.11021
2.42600 -0.04810
2.42800 -0.04064
2.43000 -0.07390
2.43200 0.01501
2.43400 -0.01058
2.43600 0.01555
2.43800 -0.08445
2.44000 0.03409
2.44200 0.01838
2.44400 -0.03485
2.44600 -0.02897
2.44800 0.05453
2.45000 0.02430
2.45200 0.02796
2.45400 -0.06714
2.45600 0.00880
2.45800 -0.07105
2.46000 0.04627
2.46200 -0.04172
2.46400 0.00443
2.46600 0.05402
2.46800 -0.05993
2.47000 0.00972
2.47200 0.10083
2.47400 -0.01660
2.47600 -0.03823
2.47800 0.01068
2.48000 -0.12241
2.48200 -0.04024
2.48400 0.07530
2.48600 0.05371
2.48800 0.11903
2.49000 -0.13607
2.49200 0.02701
2.49400 -0.09921
2.49600 0.04192
2.49800 -0.01188
2.50000 -0.03007
2.50200 -0.07211
2.50400 -0.03386
2.50600 0.00191
2.50800 -0.03118
2.51000 -0.06133
2.51200 -0.03533
2.51400 0.11849
2.51600 -0.09615
2.51800 -0.12821
2.52000 0.00336
2.52200 -0.04448
2.52400 -0.03592
2.52600 0.04479
2.52800 0.08227
2.53000 0.02913
2.53200 -0.02569
2.53400 0.00107
2.53600 0.03256
2.53800 -0.05537
2.54000 0.03443
2.54200 -0.00037
2.54400 -0.03407
2.54600 -0.09833
2.54800 -0.00213
2.55000 0.00356
2.55200 0.03082
2.55400 0.05278
2.55600 0.03748
2.55800 0.02078
2.56000 0.01523
2.56200 -0.03925
2.56400 -0.07269
2.56600 0.07435
2.56800 0.02016
2.57000 0.11416
2.57200 0.14584
2.57400 0.09033
2.57600 0.07645
2.57800 -0.00394
2.58000 0.06359
2.58200 -0.11039
2.58400 -0.03391
2.58600 -0.02082
2.58800 -0.04403
2.59000 -0.03008
2.59200 -0.07225
2.59400 0.00567
2.59600 -0.03385
2.59800 -0.03029
2.60000 -0.07316
2.60200 0.03383
2.60400 0.00714
2.60600 0.05126
2.60800 -0.06388
2.61000 0.05322
2.61200 0.03045
2.61400 0.12829
2.61600 0.28468
2.61800 0.57679
2.62000 1.38438
2.62200 1.62332
2.62400 1.05044
2.62600 0.43946
2.62800 0.06454
2.63000 -0.10398
2.63200 0.03562
2.63400 -0.00223
2.63600 0.03392
2.63800 -0.03408
2.64000 -0.03982
2.64200 -0.03277
2.64400 0.13605
2.64600 -0.02140
2.64800 0.06136
2.65000 0.00764
2.65200 -0.08042
2.65400 0.08369
2.65600 0.03474
2.65800 0.01571
2.66000 0.08846
2.66200 0.00940
2.66400 0.01492
2.66600 0.00834
2.66800 -0.10428
2.67000 0.03850
2.67200 0.06185
2.67400 0.03372
2.67600 0.00975
2.67800 -0.06837
2.68000 -0.04716
2.68200 0.15925
2.68400 -0.01571
2.68600 0.00943
2.68800 -0.05353
2.69000 -0.04819
2.69200 -0.05351
2.69400 -0.03410
2.69600 -0.03081
2.69800 0.02793
2.70000 -0.01650
2.70200 -0.11738
2.70400 -0.05702
2.70600 0.02936
2.70800 -0.02477
2.71000 0.11622
2.71200 -0.02280
2.71400 -0.04413
2.71600 -0.02281
2.71800 0.05665
2.72000 0.01585
2.72200 -0.00194
2.72400 0.01070
2.72600 0.05882
2.72800 0.01805
2.73000 0.02098
2.73200 0.03634
2.73400 0.02438
2.73600 -0.00799
2.73800 -0.08180
2.74000 -0.03218
2.74200 0.06378
2.74400 -0.03186
2.74600 -0.00837
2.74800 0.04352
2.75000 0.02568
2.75200 -0.09647
2.75400 0.03069
2.75600 -0.11404
2.75800 0.03958
2.76000 -0.02092
2.76200 -0.04637
2.76400 -0.09447
2.76600 -0.10775
2.76800 -0.01383
2.77000 0.02066
2.77200 0.10235
2.77400 0.06775
2.77600 0.04399
2.77800 0.03023
2.78000 -0.03688
2.78200 0.02934
2.78400 -0.11235
2.78600 0.06204
2.78800 -0.06130
2.79000 -0.02334
2.79200 -0.03116
2.79400 -0.04008
2.79600 -0.01030
2.79800 -0.08189
2.80000 0.00779
2.80200 0.05275
2.80400 -0.03295
2.80600 0.11576
2.80800 -0.09778
2.81000 -0.06455
2.81200 -0.04391
2.81400 -0.02519
2.81600 -0.17744
2.81800 -0.04222
2.82000 0.05166
2.82200 -0.06339
2.82400 -0.04731
2.82600 -0.14774
2.82800 0.05793
2.83000 -0.07066
2.83200 0.07644
2.83400 -0.00221
2.83600 0.02291
2.83800 0.03995
2.84000 0.01977
2.84200 -0.00703
2.84400 0.02218
2.84600 0.07126
2.84800 0.01608
2.85000 -0.04941
2.85200 0.00326
2.85400 -0.02516
2.85600 0.02948
2.85800 -0.02393
2.86000 -0.08637
2.86200 -0.05339
2.86400 0.06770
2.86600 0.05756
2.86800 -0.03044
2.87000 0.03593
2.87200 0.00154
2.87400 -0.04474
2.87600 -0.06266
2.87800 0.04760
2.88000 0.05314
2.88200 -0.04498
2.88400 0.03395
2.88600 -0.02363
2.88800 -0.00378
2.89000 -0.01053
2.89200 -0.00869
2.89400 0.03909
2.89600 0.00856
2.89800 0.07551
2.90000 0.06051
2.90200 0.12142
2.90400 0.07137
2.90600 -0.07815
2.90800 0.08097
2.91000 -0.00581
2.91200 0.07154
2.91400 -0.00250
2.91600 -0.03756
2.91800 -0.02953
2.92000 -0.02532
2.92200 0.07435
2.92400 -0.08373
2.92600 -0.02129
2.92800 0.00637
2.93000 0.10603
2.93200 0.01246
2.93400 -0.04563
2.93600 0.05488
2.93800 -0.08745
2.94000 0.02065
2.94200 0.17567
2.94400 0.01508
2.94600 0.02988
2.94800 0.01063
2.95000 -0.04515
2.95200 -0.00555
2.95400 -0.04354
2.95600 0.09667
2.95800 -0.08743
2.96000 0.06474
2.96200 -0.07917
2.96400 0.06071
2.96600 0.02299
2.96800 -0.08310
2.97000 0.03471
2.97200 0.09574
2.97400 -0.03112
2.97600 0.05653
2.97800 0.03070
2.98000 0.00564
2.98200 -0.05249
2.98400 0.06833
2.98600 0.00614
2.98800 -0.00690
2.99000 0.13754
2.99200 -0.03024
2.99400 0.01744
2.99600 -0.11558
2.99800 0.06047
3.00000 -0.01087
3.00200 0.01648
3.00400 -0.07108
3.00600 -0.02882
3.00800 -0.09683
3.01000 -0.07686
3.01200 -0.03165
3.01400 -0.02489
3.01600 -0.07189
3.01800 -0.00819
3.02000 0.03074
3.02200 0.01540
3.02400 -0.05127
3.02600 -0.09110
3.02800 0.01739
3.03000 -0.05766
3.03200 -0.01432
3.03400 -0.02753
3.03600 -0.03677
3.03800 -0.05718
3.04000 0.04892
3.04200 0.01764
3.04400 0.00830
3.04600 0.01758
3.04800 0.02646
3.05000 -0.09899
3.05200 0.00484
3.05400 0.02623
3.05600 -0.09166
3.05800 -0.06523
3.06000 0.00989
3.06200 0.05031
3.06400 0.09292
3.06600 0.02103
3.06800 0.08978
3.07000 0.00691
3.07200 0.12349
3.07400 -0.02986
3.07600 0.00924
3.07800 -0.00716
3.08000 -0.02535
3.08200 0.06269
3.08400 -0.07436
3.08600 -0.07817
3.08800 0.01399
3.09000 -0.01895
3.09200 -0.02399
3.09400 -0.00063
3.09600 -0.03578
3.09800 -0.02088
3.10000 0.06076
3.10200 -0.12190
3.10400 0.11813
3.10600 -0.05989
3.10800 0.05004
3.11000 0.12608
3.11200 -0.00700
3.11400 -0.03717
3.11600 0.00910
3.11800 -0.01010
3.12000 0.02920
3.12200 -0.00184
3.12400 0.02056
3.12600 0.00121
3.12800 -0.04655
3.13000 -0.02330
3.13200 0.00399
3.13400 -0.18192
3.13600 0.01860
3.13800 0.09870
3.14000 -0.09307
3.14200 -0.08020
3.14400 0.03871
3.14600 -0.02126
3.14800 -0.02688
3.15000 0.04168
3.15200 0.05582
3.15400 -0.07912
3.15600 -0.01601
3.15800 -0.10403
3.16000 -0.04121
3.16200 -0.00723
3.16400 0.04566
3.16600 -0.04657
3.16800 -0.00404
3.17000 -0.15711
3.17200 -0.05481
3.17400 0.01258
3.17600 -0.04265
3.17800 0.09229
3.18000 -0.03350
3.18200 -0.03569
3.18400 -0.01234
3.18600 -0.13114
3.18800 -0.05293
3.19000 -0.02107
3.19200 0.03803
3.19400 -0.05260
3.19600 0.06934
3.19800 0.20257
3.20000 0.69384
3.20200 1.24023
3.20400 1.61221
3.20600 1.11010
3.20800 0.66164
3.21000 0.27187
3.21200 0.11351
3.21400 -0.02407
3.21600 -0.03476
3.21800 -0.04837
3.22000 -0.06085
3.22200 -0.04282
3.22400 -0.02749
3.22600 0.01566
3.22800 0.00622
3.23000 -0.05276
3.23200 0.04714
3.23400 -0.06166
3.23600 -0.10647
3.23800 -0.10565
3.24000 -0.03679
3.24200 -0.00983
3.24400 0.02218
3.24600 0.03686
3.24800 -0.08944
3.25000 0.06504
3.25200 -0.00003
3.25400 0.03270
3.25600 0.00953
3.25800 -0.00131
3.26000 -0.06937
3.26200 -0.01070
3.26400 -0.05746
3.26600 -0.07704
3.26800 0.02939
3.27000 0.00157
3.27200 0.02252
3.27400 -0.07564
3.27600 -0.00578
3.27800 -0.06264
3.28000 -0.00454
3.28200 0.08296
3.28400 0.00432
3.28600 -0.08353
3.28800 0.06248
3.29000 0.02560
3.29200 -0.00530
3.29400 0.04412
3.29600 -0.01302
3.29800 -0.01358
3.30000 -0.01232
3.30200 -0.05507
3.30400 0.01276
3.30600 -0.00815
3.30800 -0.06151
3.31000 -0.02559
3.31200 0.04237
3.31400 -0.05898
3.31600 -0.06211
3.31800 -0.01368
3.32000 0.04118
3.32200 -0.04233
3.32400 0.00516
3.32600 0.07900
3.32800 -0.01300
3.33000 -0.06758
3.33200 -0.05707
3.33400 0.03287
3.33600 -0.02258
3.33800 0.09259
3.34000 -0.04495
3.34200 0.04165
3.34400 -0.05014
3.34600 0.01654
3.34800 0.07169
3.35000 -0.09314
3.35200 -0.00322
3.35400 -0.04970
3.35600 -0.02115
3.35800 0.10730
3.36000 0.00399
3.36200 0.11693
3.36400 -0.00734
3.36600 -0.05773
3.36800 -0.00328
3.37000 0.02943
3.37200 -0.04014
3.37400 -0.07727
3.37600 -0.09609
3.37800 -0.03371
3.38000 0.00152
3.38200 0.01383
3.38400 0.01707
3.38600 -0.07571
3.38800 -0.00291
3.39000 -0.10803
3.39200 0.07009
3.39400 -0.09992
3.39600 -0.01320
3.39800 -0.03671
3.40000 0.01373
3.40200 0.07673
3.40400 0.04287
3.40600 0.06337
3.40800 -0.01181
3.41000 0.05923
3.41200 0.08401
3.41400 -0.08327
3.41600 0.05861
3.41800 -0.08320
3.42000 -0.01361
3.42200 0.02771
3.42400 -0.02449
3.42600 0.12286
3.42800 0.00354
3.43000 0.04539
3.43200 0.02604
3.43400 0.00738
3.43600 0.10628
3.43800 -0.00929
3.44000 0.00383
3.44200 0.00848
3.44400 -0.03863
3.44600 -0.02209
3.44800 -0.00871
3.45000 -0.01894
3.45200 0.00086
3.45400 -0.01201
3.45600 -0.08916
3.45800 0.02132
3.46000 0.04720
3.46200 0.01259
3.46400 -0.00375
3.46600 0.06475
3.46800 0.07073
3.47000 -0.11012
3.47200 -0.07384
3.47400 -0.03958
3.47600 -0.03729
3.47800 0.06172
3.48000 0.00550
3.48200 0.00762
3.48400 0.00856
3.48600 -0.02933
3.48800 -0.09528
3.49000 0.00657
3.49200 0.07006
3.49400 0.02956
3.49600 0.05356
3.49800 -0.01398
3.50000 -0.06687
3.50200 0.03529
3.50400 0.06631
3.50600 0.13707
3.50800 -0.14212
3.51000 -0.13213
3.51200 0.00840
3.51400 0.05531
3.51600 0.00799
3.51800 -0.03175
3.52000 -0.10982
3.52200 0.00224
3.52400 0.07246
3.52600 0.02772
3.52800 0.05522
3.53000 0.02611
3.53200 0.01862
3.53400 -0.03098
3.53600 -0.05121
3.53800 0.04655
3.54000 0.11322
3.54200 0.00421
3.54400 0.00542
3.54600 -0.06859
3.54800 0.13221
3.55000 0.03997
3.55200 -0.06229
3.55400 0.00713
3.55600 0.13705
3.55800 0.07335
3.56000 0.05849
3.56200 -0.00675
3.56400 -0.13623
3.56600 -0.06864
3.56800 0.12232
3.57000 -0.02485
3.57200 -0.13462
3.57400 -0.09720
3.57600 -0.08065
3.57800 -0.00639
3.58000 0.04020
3.58200 -0.07707
3.58400 -0.00359
3.58600 -0.17693
3.58800 0.04775
3.59000 0.02239
3.59200 0.03685
3.59400 -0.00993
3.59600 0.00239
3.59800 -0.09276
3.60000 -0.06807
3.60200 0.01805
3.60400 0.14243
3.60600 0.00262
3.60800 0.05920
3.61000 0.01312
3.61200 -0.00919
3.61400 -0.05144
3.61600 -0.01692
3.61800 -0.00954
3.62000 0.03996
3.62200 0.02893
3.62400 -0.01209
3.62600 -0.04583
3.62800 0.05141
3.63000 0.04991
3.63200 -0.12204
3.63400 0.06614
3.63600 0.05795
3.63800 0.02992
3.64000 0.02714
3.64200 -0.05733
3.64400 0.11351
3.64600 0.08946
3.64800 0.02872
3.65000 -0.03164
3.65200 -0.00053
3.65400 -0.02706
3.65600 0.03384
3.65800 0.00923
3.66000 -0.00558
3.66200 -0.01723
3.66400 0.05004
3.66600 -0.11397
3.66800 -0.03194
3.67000 0.01807
3.67200 -0.05762
3.67400 -0.06301
3.67600 -0.07232
3.67800 -0.07355
3.68000 -0.05865
3.68200 0.00150
3.68400 -0.03869
3.68600 0.06141
3.68800 -0.00808
3.69000 -0.01439
3.69200 0.05228
3.69400 0.03732
3.69600 0.00055
3.69800 0.07149
3.70000 -0.02582
3.70200 -0.06252
3.70400 -0.02137
3.70600 -0.10274
3.70800 0.05489
3.71000 0.10066
3.71200 -0.04646
3.71400 -0.02777
3.71600 -0.01474
3.71800 -0.04271
3.72000 -0.00909
3.72200 -0.01421
3.72400 -0.08831
3.72600 0.03272
3.72800 0.06308
3.73000 -0.07461
3.73200 0.08992
3.73400 0.03458
3.73600 0.04228
3.73800 0.01901
3.74000 -0.07195
3.74200 -0.00663
3.74400 0.04163
3.74600 0.04359
3.74800 -0.03193
3.75000 -0.02928
3.75200 0.01597
3.75400 -0.05348
3.75600 -0.08808
3.75800 -0.11866
3.76000 -0.04181
3.76200 0.01611
3.76400 -0.07440
3.76600 0.01628
3.76800 -0.01588
3.77000 -0.04628
3.77200 -0.08476
3.77400 0.05680
3.77600 0.06254
3.77800 0.09721
3.78000 0.16539
3.78200 0.65647
3.78400 1.04705
3.78600 1.44225
3.78800 1.32548
3.79000 0.82684
3.79200 0.23693
3.79400 0.06419
3.79600 -0.04522
3.79800 -0.07567
3.80000 -0.06201
3.80200 -0.06773
3.80400 0.01081
3.80600 -0.05086
3.80800 -0.02956
3.81000 -0.04340
3.81200 -0.09687
3.81400 -0.03714
3.81600 -0.05196
3.81800 0.02028
3.82000 -0.00202
3.82200 -0.06191
3.82400 0.00251
3.82600 -0.02132
3.82800 -0.00554
3.83000 0.03819
3.83200 0.09821
3.83400 0.08709
3.83600 0.01354
3.83800 0.04798
3.84000 -0.03188
3.84200 -0.04211
3.84400 0.04408
3.84600 -0.08907
3.84800 -0.02752
3.85000 -0.05897
3.85200 -0.05840
3.85400 0.03664
3.85600 -0.03359
3.85800 0.01079
3.86000 -0.14443
3.86200 -0.07832
3.86400 0.04308
3.86600 0.06602
3.86800 0.06574
3.87000 0.09500
3.87200 -0.06370
3.87400 -0.02103
3.87600 0.04729
3.87800 0.05826
3.88000 0.04468
3.88200 -0.00856
3.88400 0.10095
3.88600 -0.11599
3.88800 0.05905
3.89000 -0.04559
3.89200 -0.01762
3.89400 -0.14297
3.89600 -0.03473
3.89800 -0.03344
3.90000 0.05199
3.90200 -0.07413
3.90400 0.07919
3.90600 0.00343
3.90800 -0.06029
3.91000 -0.02543
3.91200 -0.06392
3.91400 0.00382
3.91600 0.04163
3.91800 -0.03751
3.92000 0.02032
3.92200 0.04718
3.92400 -0.06810
3.92600 -0.06153
3.92800 -0.02434
3.93000 -0.00917
3.93200 0.05793
3.93400 -0.12911
3.93600 -0.00356
3.93800 -0.11124
3.94000 -0.05812
3.94200 0.06703
3.94400 -0.04684
3.94600 0.06495
3.94800 0.02287
3.95000 0.09876
3.95200 0.10246
3.95400 -0.00799
3.95600 0.08051
3.95800 -0.00581
3.96000 0.01703
3.96200 0.05086
3.96400 -0.09991
3.96600 -0.09132
3.96800 0.01670
3.97000 0.06300
3.97200 0.07379
3.97400 0.07209
3.97600 -0.00355
3.97800 0.01026
3.98000 -0.03304
3.98200 0.03479
3.98400 -0.08201
3.98600 0.00473
3.98800 0.01684
3.99000 -0.06027
3.99200 -0.00868
3.99400 0.12007
3.99600 -0.09751
3.99800 -0.03320
4.00000 -0.11103
4.00200 -0.01707
4.00400 0.09638
4.00600 -0.06538
4.00800 0.06432
4.01000 0.03584
4.01200 -0.02099
4.01400 -0.03825
4.01600 0.02266
4.01800 0.12027
4.02000 -0.02406
4.02200 0.09678
4.02400 -0.05218
4.02600 -0.01936
4.02800 0.01223
4.03000 -0.13381
4.03200 0.01847
4.03400 0.06916
4.03600 0.04172
4.03800 -0.02920
4.04000 0.00194
4.04200 0.03724
4.04400 -0.12027
4.04600 -0.06273
4.04800 -0.06314
4.05000 -0.02709
4.05200 0.02541
4.05400 -0.00818
4.05600 -0.00494
4.05800 -0.05088
4.06000 0.02685
4.06200 0.03394
4.06400 0.02333
4.06600 -0.10120
4.06800 -0.02428
4.07000 -0.02334
4.07200 -0.05935
4.07400 -0.07704
4.07600 0.05408
4.07800 -0.06889
4.08000 -0.08878
4.08200 0.04667
4.08400 0.04505
4.08600 0.04594
4.08800 0.04386
4.09000 -0.07713
4.09200 0.01689
4.09400 0.07222
4.09600 -0.01845
4.09800 -0.02492
4.10000 -0.05625
4.10200 -0.03735
4.10400 0.04313
4.10600 -0.03840
4.10800 0.15867
4.11000 0.06408
4.11200 0.05105
4.11400 0.06321
4.11600 -0.02071
4.11800 -0.07201
4.12000 0.07572
4.12200 0.05461
4.12400 -0.00636
4.12600 0.00001
4.12800 0.00988
4.13000 -0.02988
4.13200 0.00052
4.13400 0.02832
4.13600 -0.05698
4.13800 0.01322
4.14000 0.07773
4.14200 -0.02764
4.14400 -0.10407
4.14600 -0.04790
4.14800 0.09181
4.15000 0.07507
4.15200 0.02506
4.15400 -0.02878
4.15600 0.13827
4.15800 -0.00334
4.16000 -0.02773
4.16200 0.04259
4.16400 -0.10258
4.16600 0.15326
4.16800 0.02438
4.17000 -0.03401
4.17200 -0.00676
4.17400 0.02479
4.17600 -0.07050
4.17800 -0.13314
4.18000 -0.02266
4.18200 0.04578
4.18400 0.00124
4.18600 -0.00513
4.18800 0.08670
4.19000 0.07485
4.19200 -0.03756
4.19400 -0.02115
4.19600 0.01015
4.19800 -0.03536
4.20000 -0.06358
4.20200 0.01104
4.20400 -0.00990
4.20600 0.00527
4.20800 0.02847
4.21000 0.02005
4.21200 0.00669
4.21400 0.03557
4.21600 0.04888
4.21800 -0.00797
4.22000 0.04301
4.22200 0.00901
4.22400 0.01609
4.22600 -0.01263
4.22800 0.02319
4.23000 -0.08587
4.23200 0.00446
4.23400 0.01869
4.23600 0.00334
4.23800 0.05815
4.24000 -0.01005
4.24200 0.09210
4.24400 -0.01345
4.24600 -0.02969
4.24800 0.05053
4.25000 0.03123
4.25200 0.06288
4.25400 -0.11818
4.25600 -0.06920
4.25800 -0.00722
4.26000 0.06029
4.26200 0.03408
4.26400 0.03287
4.26600 0.00413
4.26800 -0.02092
4.27000 -0.07369
4.27200 0.00372
4.27400 0.09319
4.27600 -0.09388
4.27800 -0.04900
4.28000 -0.07685
4.28200 0.02183
4.28400 -0.05808
4.28600 -0.09001
4.28800 0.02906
4.29000 0.01098
4.29200 -0.11288
4.29400 -0.04999
4.29600 0.00139
4.29800 0.09799
4.30000 0.00685
4.30200 0.14093
4.30400 0.10752
4.30600 0.05046
4.30800 0.03643
4.31000 -0.00219
4.31200 -0.08600
4.31400 0.00672
4.31600 0.00787
4.31800 -0.02034
4.32000 -0.10760
4.32200 0.06030
4.32400 0.03963
4.32600 0.02251
4.32800 -0.00014
4.33000 0.10621
4.33200 0.05481
4.33400 -0.02489
4.33600 -0.04966
4.33800 0.01488
4.34000 -0.10716
4.34200 -0.04562
4.34400 0.02791
4.34600 -0.00874
4.34800 0.00237
4.35000 0.01824
4.35200 0.05121
4.35400 -0.07064
4.35600 -0.02116
4.35800 0.05536
4.36000 0.02426
4.36200 0.11996
4.36400 0.26865
4.36600 0.95416
4.36800 1.58963
4.37000 1.44483
4.37200 0.86638
4.37400 0.42617
4.37600 0.08385
4.37800 -0.09925
4.38000 0.04435
4.38200 -0.02505
4.38400 -0.12351
4.38600 0.01292
4.38800 -0.15913
4.39000 -0.13614
4.39200 -0.03979
4.39400 0.13421
4.39600 -0.08519
4.39800 -0.07267
4.40000 0.05603
4.40200 0.02956
4.40400 0.02432
4.40600 -0.04070
4.40800 0.06034
4.41000 -0.05723
4.41200 0.06834
4.41400 -0.10519
4.41600 0.17857
4.41800 0.11335
4.42000 -0.02418
4.42200 0.07184
4.42400 -0.01654
4.42600 -0.03361
4.42800 0.09101
4.43000 0.02014
4.43200 0.09911
4.43400 0.07983
4.43600 0.04398
4.43800 -0.03016
4.44000 0.05653
4.44200 0.07710
4.44400 -0.03297
4.44600 0.07346
4.44800 0.00801
4.45000 -0.07613
4.45200 0.04717
4.45400 -0.02367
4.45600 -0.08329
4.45800 -0.07224
4.46000 -0.00002
4.46200 -0.02316
4.46400 -0.02007
4.46600 0.01475
4.46800 0.05774
4.47000 -0.06769
4.47200 -0.03039
4.47400 0.04987
4.47600 0.00012
4.47800 -0.00568
4.48000 0.08724
4.48200 -0.05452
4.48400 0.08719
4.48600 0.03293
4.48800 -0.15913
4.49000 -0.08741
4.49200 0.03967
4.49400 -0.10387
4.49600 -0.00023
4.49800 -0.00412
4.50000 -0.08251
4.50200 -0.00748
4.50400 0.03459
4.50600 0.07561
4.50800 0.00435
4.51000 -0.02960
4.51200 -0.01463
4.51400 0.02434
4.51600 -0.00693
4.51800 -0.03196
4.52000 -0.04096
4.52200 0.05435
4.52400 0.02658
4.52600 0.01548
4.52800 0.00607
4.53000 -0.00624
4.53200 0.02290
4.53400 -0.01557
4.53600 0.05928
4.53800 0.08252
4.54000 -0.00482
4.54200 -0.04209
4.54400 0.10345
4.54600 -0.03819
4.54800 -0.02390
4.55000 0.03406
4.55200 0.01725
4.55400 0.11346
4.55600 0.16108
4.55800 0.02460
4.56000 -0.08069
4.56200 -0.01977
4.56400 -0.13203
4.56600 0.08889
4.56800 -0.00557
4.57000 0.07718
4.57200 -0.02423
4.57400 -0.00135
4.57600 0.02631
4.57800 -0.00841
4.58000 -0.01110
4.58200 0.02069
4.58400 0.00156
4.58600 0.10996
4.58800 0.10490
4.59000 0.00052
4.59200 0.01952
4.59400 -0.06138
4.59600 -0.04895
4.59800 -0.03552
4.60000 -0.07887
4.60200 0.02917
4.60400 0.04339
4.60600 -0.02164
4.60800 0.04032
4.61000 -0.06087
4.61200 0.00823
4.61400 0.01632
4.61600 -0.03123
4.61800 0.09307
4.62000 -0.08475
4.62200 -0.00034
4.62400 -0.09537
4.62600 0.02351
4.62800 0.01297
4.63000 0.06701
4.63200 0.02207
4.63400 -0.05457
4.63600 -0.05083
4.63800 0.03251
4.64000 0.00034
4.64200 -0.01581
4.64400 0.03706
4.64600 0.05059
4.64800 0.00990
4.65000 -0.04337
4.65200 0.00749
4.65400 -0.05980
4.65600 0.00804
4.65800 -0.00482
4.66000 0.02604
4.66200 -0.07288
4.66400 -0.01948
4.66600 0.04841
4.66800 0.06115
4.67000 0.03744
4.67200 -0.06645
4.67400 0.06764
4.67600 -0.05623
4.67800 -0.05686
4.68000 0.05756
4.68200 0.07376
4.68400 -0.11739
4.68600 0.04564
4.68800 -0.08974
4.69000 0.01660
4.69200 -0.07925
4.69400 -0.09244
4.69600 -0.06539
4.69800 -0.00637
4.70000 -0.04253
4.70200 -0.03347
4.70400 0.00067
4.70600 -0.00034
4.70800 -0.01249
4.71000 -0.01567
4.71200 -0.02520
4.71400 -0.02240
4.71600 0.10397
4.71800 0.02986
4.72000 0.00590
4.72200 -0.00381
4.72400 -0.01143
4.72600 0.06685
4.72800 0.00443
4.73000 -0.04055
4.73200 -0.10571
4.73400 0.07082
4.73600 -0.02632
4.73800 0.11323
4.74000 -0.01493
4.74200 -0.00751
4.74400 0.04696
4.74600 0.02662
4.74800 -0.06577
4.75000 -0.06637
4.75200 0.03130
4.75400 0.03063
4.75600 -0.01742
4.75800 -0.00895
4.76000 0.15000
4.76200 -0.06176
4.76400 0.01169
4.76600 0.03753
4.76800 -0.06658
4.77000 0.06579
4.77200 0.05445
4.77400 -0.01857
4.77600 -0.02228
4.77800 -0.03949
4.78000 0.01096
4.78200 0.07001
4.78400 -0.00477
4.78600 0.06702
4.78800 -0.02952
4.79000 -0.02211
4.79200 -0.00477
4.79400 -0.01681
4.79600 0.10587
4.79800 0.01536
4.80000 0.06978
4.80200 0.05998
4.80400 -0.00611
4.80600 0.08246
4.80800 -0.10468
4.81000 0.00920
4.81200 -0.09047
4.81400 -0.02278
4.81600 -0.01637
4.81800 0.01365
4.82000 0.01216
4.82200 -0.08161
4.82400 -0.00250
4.82600 0.04111
4.82800 -0.00438
4.83000 0.05623
4.83200 -0.09069
4.83400 -0.03422
4.83600 -0.01139
4.83800 0.04593
4.84000 0.00416
4.84200 0.07805
4.84400 -0.02288
4.84600 0.02130
4.84800 -0.06801
4.85000 0.08861
4.85200 -0.01471
4.85400 -0.00394
4.85600 0.00302
4.85800 0.07413
4.86000 0.00916
4.86200 0.03805
4.86400 0.07813
4.86600 0.06448
4.86800 0.02860
4.87000 0.01984
4.87200 -0.02354
4.87400 0.13659
4.87600 -0.02097
4.87800 -0.01544
4.88000 0.01758
4.88200 0.08844
4.88400 -0.09712
4.88600 0.01458
4.88800 0.05080
4.89000 -0.01076
4.89200 0.11142
4.89400 -0.01412
4.89600 -0.07802
4.89800 0.02565
4.90000 0.03561
4.90200 -0.05675
4.90400 -0.05302
4.90600 0.01722
4.90800 -0.00054
4.91000 -0.04702
4.91200 0.06049
4.91400 -0.06264
4.91600 0.03749
4.91800 -0.09357
4.92000 -0.10977
4.92200 -0.02889
4.92400 0.05170
4.92600 -0.01736
4.92800 -0.01877
4.93000 0.00724
4.93200 -0.07895
4.93400 -0.04000
4.93600 -0.03054
4.93800 -0.01899
4.94000 -0.19668
4.94200 0.16885
4.94400 0.13895
4.94600 0.26942
4.94800 0.72761
4.95000 1.38836
4.95200 1.44666
4.95400 1.00708
4.95600 0.37929
4.95800 0.04586
4.96000 0.16470
4.96200 0.01660
4.96400 -0.00610
4.96600 -0.09567
4.96800 0.09171
4.97000 -0.00434
4.97200 -0.11955
4.97400 0.03781
4.97600 -0.00311
4.97800 -0.09054
4.98000 -0.00978
4.98200 0.08437
4.98400 0.01317
4.98600 -0.04495
4.98800 0.09721
4.99000 0.07298
4.99200 -0.10844
4.99400 0.12683
4.99600 -0.07956
4.99800 0.04880
5.00000 0.11731
5.00200 -0.06758
5.00400 0.05099
5.00600 0.03453
5.00800 -0.06012
5.01000 -0.01349
5.01200 -0.08073
5.01400 0.02040
5.01600 0.01764
5.01800 -0.02545
5.02000 -0.00485
5.02200 -0.05033
5.02400 0.02357
5.02600 -0.05975
5.02800 -0.00060
5.03000 0.04218
5.03200 -0.02928
5.03400 -0.08811
5.03600 0.06865
5.03800 -0.06196
5.04000 0.04369
5.04200 -0.01748
5.04400 -0.02522
5.04600 -0.01438
5.04800 -0.08247
5.05000 0.09470
5.05200 0.01172
5.05400 0.00803
5.05600 0.01578
5.05800 0.08446
5.06000 -0.02877
5.06200 0.01357
5.06400 0.04921
5.06600 0.02514
5.06800 0.06644
5.07000 0.00662
5.07200 -0.04098
5.07400 -0.08617
5.07600 -0.07830
5.07800 -0.02760
5.08000 0.01311
5.08200 -0.02976
5.08400 -0.03828
5.08600 -0.03787
5.08800 -0.06367
5.09000 -0.09794
5.09200 -0.11333
5.09400 0.00612
5.09600 0.01861
5.09800 -0.01901
5.10000 0.09012
5.10200 0.08310
5.10400 -0.02723
5.10600 -0.03397
5.10800 0.11176
5.11000 -0.03862
5.11200 0.00541
5.11400 -0.11482
5.11600 -0.07078
5.11800 -0.01601
5.12000 -0.06854
5.12200 -0.05334
5.12400 -0.01215
5.12600 0.06143
5.12800 0.04860
5.13000 0.10763
5.13200 0.08390
5.13400 0.04200
5.13600 -0.04966
5.13800 -0.10954
5.14000 -0.08898
5.14200 -0.12295
5.14400 0.02653
5.14600 -0.00435
5.14800 -0.01811
5.15000 0.00864
5.15200 -0.11983
5.15400 0.03611
5.15600 -0.00836
5.15800 -0.01589
5.16000 -0.05251
5.16200 0.01819
5.16400 0.12108
5.16600 0.02240
5.16800 -0.12508
5.17000 0.00823
5.17200 0.04385
5.17400 -0.08555
5.17600 0.01954
5.17800 0.03854
5.18000 0.00731
5.18200 0.01653
5.18400 0.01069
5.18600 -0.05269
5.18800 0.06897
5.19000 -0.11581
5.19200 -0.01294
5.19400 0.01820
5.19600 -0.02423
5.19800 -0.05033
5.20000 -0.00347
5.20200 -0.02530
5.20400 0.08341
5.20600 -0.07292
5.20800 -0.08473
5.21000 0.12057
5.21200 -0.12869
5.21400 -0.00278
5.21600 -0.00693
5.21800 0.13259
5.22000 0.03551
5.22200 0.00649
5.22400 0.08412
5.22600 -0.01754
5.22800 0.04461
5.23000 0.03271
5.23200 0.01045
5.23400 0.06601
5.23600 -0.02680
5.23800 -0.03039
5.24000 0.11685
5.24200 0.08308
5.24400 0.04093
5.24600 -0.01613
5.24800 -0.01344
5.25000 -0.00107
5.25200 0.01764
5.25400 -0.00036
5.25600 0.00617
5.25800 0.04459
5.26000 -0.04670
5.26200 -0.03216
5.26400 0.08250
5.26600 0.00790
5.26800 0.01054
5.27000 -0.01663
5.27200 -0.05865
5.27400 -0.07661
5.27600 0.07710
5.27800 0.02696
5.28000 -0.03669
5.28200 -0.02965
5.28400 0.05308
5.28600 -0.06522
5.28800 -0.01042
5.29000 0.01786
5.29200 0.00658
5.29400 -0.00474
5.29600 0.02850
5.29800 0.05274
5.30000 0.11432
5.30200 -0.03041
5.30400 0.11619
5.30600 0.06695
5.30800 -0.00089
5.31000 -0.00202
5.31200 0.01043
5.31400 -0.04335
5.31600 0.06791
5.31800 -0.01184
5.32000 -0.03162
5.32200 -0.02015
5.32400 0.03080
5.32600 0.05255
5.32800 0.02818
5.33000 -0.01021
5.33200 0.06170
5.33400 -0.09616
5.33600 0.02878
5.33800 -0.02031
5.34000 0.04232
5.34200 -0.02039
5.34400 0.05169
5.34600 0.07951
5.34800 0.02102
5.35000 0.00052
5.35200 0.03302
5.35400 -0.02981
5.35600 0.00869
5.35800 -0.11277
5.36000 -0.00117
5.36200 0.07408
5.36400 -0.01048
5.36600 0.03754
5.36800 0.04609
5.37000 0.01755
5.37200 0.03213
5.37400 0.06329
5.37600 0.02357
5.37800 0.07607
5.38000 0.05012
5.38200 -0.11435
5.38400 0.01431
5.38600 -0.02854
5.38800 0.07815
5.39000 -0.01690
5.39200 -0.09009
5.39400 0.03891
5.39600 -0.00131
5.39800 0.07013
5.40000 0.05316
5.40200 0.10310
5.40400 0.06097
5.40600 -0.03543
5.40800 -0.04079
5.41000 -0.01703
5.41200 -0.05253
5.41400 -0.00304
5.41600 -0.08803
5.41800 0.07595
5.42000 -0.11657
5.42200 0.12234
5.42400 0.04497
5.42600 -0.09958
5.42800 -0.02103
5.43000 -0.01622
5.43200 0.05717
5.43400 -0.04536
5.43600 0.00266
5.43800 -0.06658
5.44000 -0.06066
5.44200 -0.17900
5.44400 -0.08096
5.44600 -0.03920
5.44800 0.01244
5.45000 -0.01470
5.45200 -0.12681
5.45400 0.04751
5.45600 0.10703
5.45800 -0.02224
5.46000 0.00632
5.46200 -0.00718
5.46400 0.03567
5.46600 -0.05127
5.46800 -0.02225
5.47000 -0.00357
5.47200 0.01700
5.47400 0.04618
5.47600 0.08290
5.47800 -0.00748
5.48000 0.00387
5.48200 0.10401
5.48400 -0.01167
5.48600 0.05558
5.48800 0.01649
5.49000 0.04419
5.49200 0.08935
5.49400 -0.04458
5.49600 0.10870
5.49800 -0.07319
5.50000 0.03201
5.50200 0.04781
5.50400 -0.06329
5.50600 -0.11880
5.50800 0.05429
5.51000 -0.03653
5.51200 0.06480
5.51400 -0.12469
5.51600 -0.10246
5.51800 -0.03888
5.52000 -0.20337
5.52200 -0.00215
5.52400 0.07730
5.52600 -0.08528
5.52800 0.15869
5.53000 0.58509
5.53200 1.16664
5.53400 1.54676
5.53600 1.20550
5.53800 0.63131
5.54000 0.20292
5.54200 0.10345
5.54400 0.07816
5.54600 -0.05626
5.54800 0.08054
5.55000 -0.06745
5.55200 0.00405
5.55400 -0.03527
5.55600 -0.05202
5.55800 -0.00070
5.56000 0.03462
5.56200 -0.05169
5.56400 -0.07786
5.56600 -0.04422
5.56800 0.03647
5.57000 0.05135
5.57200 -0.03895
5.57400 -0.06785
5.57600 0.00963
5.57800 0.05000
5.58000 -0.00456
5.58200 -0.01870
5.58400 -0.00514
5.58600 0.11014
5.58800 -0.08789
5.59000 -0.04595
5.59200 -0.06034
5.59400 -0.02004
5.59600 -0.07706
5.59800 0.09116
5.60000 0.07016
5.60200 0.09238
5.60400 -0.07642
5.60600 -0.06421
5.60800 0.04513
5.61000 -0.11408
5.61200 -0.03033
5.61400 0.03158
5.61600 0.04405
5.61800 -0.09573
5.62000 0.03985
5.62200 0.03882
5.62400 0.02739
5.62600 0.02217
5.62800 -0.05240
5.63000 0.05233
5.63200 0.04139
5.63400 0.07722
5.63600 0.07213
5.63800 0.02909
5.64000 -0.06835
5.64200 0.05319
5.64400 0.09228
5.64600 0.13715
5.64800 -0.01536
5.65000 -0.06111
5.65200 0.06314
5.65400 -0.00714
5.65600 -0.04838
5.65800 0.03890
5.66000 0.03337
5.66200 0.00108
5.66400 0.00417
5.66600 0.06792
5.66800 -0.06418
5.67000 -0.03175
5.67200 -0.03346
5.67400 0.09436
5.67600 0.02006
5.67800 0.06585
5.68000 -0.03364
5.68200 0.06562
5.68400 0.04153
5.68600 0.15038
5.68800 -0.03863
5.69000 -0.03667
5.69200 0.06060
5.69400 -0.02602
5.69600 -0.01303
5.69800 -0.00533
5.70000 0.13101
5.70200 0.04227
5.70400 -0.00033
5.70600 0.00389
5.70800 0.01862
5.71000 0.09887
5.71200 -0.02651
5.71400 0.04065
5.71600 -0.02785
5.71800 0.09755
5.72000 0.02099
5.72200 -0.05346
5.72400 -0.07254
5.72600 0.01124
5.72800 -0.06891
5.73000 0.04578
5.73200 0.06436
5.73400 0.04858
5.73600 -0.01137
5.73800 -0.10614
5.74000 -0.12848
5.74200 0.04941
5.74400 -0.11190
5.74600 0.11171
5.74800 0.09403
5.75000 0.00368
5.75200 0.03765
5.75400 -0.00611
5.75600 0.00438
5.75800 0.02034
5.76000 0.06059
5.76200 0.01653
5.76400 -0.05369
5.76600 0.01844
5.76800 -0.05222
5.77000 0.02105
5.77200 -0.08292
5.77400 -0.02509
5.77600 -0.00476
5.77800 -0.06271
5.78000 0.02794
5.78200 -0.01694
5.78400 0.03723
5.78600 0.03440
5.78800 0.08540
5.79000 0.00548
5.79200 0.00456
5.79400 -0.07731
5.79600 -0.00723
5.79800 -0.03617
5.80000 -0.13954
5.80200 -0.06877
5.80400 0.03532
5.80600 -0.04841
5.80800 -0.04882
5.81000 0.07064
5.81200 0.06279
5.81400 -0.05357
5.81600 0.01881
5.81800 0.05040
5.82000 0.00992
5.82200 0.00514
5.82400 -0.01588
5.82600 -0.03510
5.82800 0.01534
5.83000 -0.03905
5.83200 0.02870
5.83400 0.05977
5.83600 0.01468
5.83800 -0.00736
5.84000 0.06540
5.84200 -0.02055
5.84400 0.01917
5.84600 0.15714
5.84800 0.06075
5.85000 -0.08776
5.85200 0.03536
5.85400 0.00333
5.85600 -0.08087
5.85800 0.04733
5.86000 0.01637
5.86200 0.00159
5.86400 -0.08046
5.86600 0.10783
5.86800 0.05713
5.87000 -0.06119
5.87200 -0.05599
5.87400 0.03903
5.87600 0.00953
5.87800 -0.05665
5.88000 -0.03563
5.88200 0.03517
5.88400 0.07381
5.88600 -0.09626
5.88800 0.02002
5.89000 0.04759
5.89200 0.02143
5.89400 -0.01528
5.89600 -0.02741
5.89800 0.00071
5.90000 0.15615
5.90200 0.02155
5.90400 0.07277
5.90600 0.06858
5.90800 -0.04383
5.91000 0.04274
5.91200 0.04283
5.91400 -0.00366
5.91600 0.05850
5.91800 0.01402
5.92000 -0.09484
5.92200 -0.03840
5.92400 0.00013
5.92600 0.06292
5.92800 -0.02193
5.93000 -0.02732
5.93200 -0.00846
5.93400 0.07594
5.93600 0.09624
5.93800 -0.02395
5.94000 -0.05339
5.94200 0.02677
5.94400 -0.02424
5.94600 -0.06353
5.94800 0.06762
5.95000 0.03002
5.95200 -0.00691
5.95400 0.00328
5.95600 0.05573
5.95800 -0.05197
5.96000 -0.03423
5.96200 0.03519
5.96400 0.03944
5.96600 -0.06768
5.96800 -0.04353
5.97000 0.01000
5.97200 -0.01398
5.97400 -0.02163
5.97600 -0.02722
5.97800 -0.02468
5.98000 -0.11335
5.98200 -0.14933
5.98400 -0.09869
5.98600 0.02166
5.98800 -0.00846
5.99000 -0.10243
5.99200 0.01503
5.99400 -0.09254
5.99600 -0.03312
5.99800 0.01609
6.00000 0.00721
6.00200 -0.01844
6.00400 0.03650
6.00600 -0.09742
6.00800 -0.02491
6.01000 0.10206
6.01200 0.10517
6.01400 0.05670
6.01600 0.06474
6.01800 -0.05090
6.02000 -0.03250
6.02200 -0.08316
6.02400 -0.14050
6.02600 0.05262
6.02800 -0.02957
6.03000 -0.06418
6.03200 0.00624
6.03400 0.11228
6.03600 -0.04071
6.03800 0.11012
6.04000 0.07035
6.04200 0.04735
6.04400 -0.07056
6.04600 0.09507
6.04800 0.00834
6.05000 0.00110
6.05200 -0.11487
6.05400 0.04456
6.05600 0.10533
6.05800 -0.02836
6.06000 -0.01702
6.06200 0.00353
6.06400 0.00369
6.06600 -0.04572
6.06800 -0.01683
6.07000 -0.01672
6.07200 -0.06615
6.07400 -0.06185
6.07600 0.02167
6.07800 -0.01406
6.08000 -0.19604
6.08200 -0.05031
6.08400 -0.06295
6.08600 -0.00435
6.08800 -0.02470
6.09000 -0.11703
6.09200 0.07510
6.09400 0.03153
6.09600 -0.04476
6.09800 0.06146
6.10000 -0.06290
6.10200 0.03007
6.10400 0.00257
6.10600 -0.04456
6.10800 0.05964
6.11000 0.15991
6.11200 0.51914
6.11400 0.99148
6.11600 1.51057
6.11800 1.30071
6.12000 0.81657
6.12200 0.23844
6.12400 0.14460
6.12600 -0.03798
6.12800 -0.06430
6.13000 0.02586
6.13200 0.09746
6.13400 -0.00826
6.13600 0.06993
6.13800 0.03267
6.14000 -0.02120
6.14200 -0.00550
6.14400 0.18201
6.14600 -0.07240
6.14800 -0.06779
6.15000 -0.06547
6.15200 0.03590
6.15400 0.01960
6.15600 0.04985
6.15800 0.02313
6.16000 -0.00608
6.16200 -0.09800
6.16400 0.00209
6.16600 -0.06344
6.16800 -0.07151
6.17000 0.08432
6.17200 0.03728
6.17400 0.05457
6.17600 0.03624
6.17800 0.06466
6.18000 0.03691
6.18200 -0.07838
6.18400 0.02147
6.18600 -0.13235
6.18800 0.00204
6.19000 0.06202
6.19200 0.11269
6.19400 0.01759
6.19600 0.02329
6.19800 -0.09009
6.20000 -0.02370
6.20200 0.05551
6.20400 0.04864
6.20600 0.03630
6.20800 -0.01687
6.21000 0.11379
6.21200 0.01414
6.21400 -0.09886
6.21600 -0.05939
6.21800 -0.01692
6.22000 -0.06205
6.22200 0.00816
6.22400 -0.06298
6.22600 0.06449
6.22800 -0.14014
6.23000 0.06670
6.23200 0.06571
6.23400 -0.00499
6.23600 -0.04063
6.23800 0.05095
6.24000 0.00021
6.24200 -0.00674
6.24400 0.08359
6.24600 0.00325
6.24800 -0.00938
6.25000 0.11639
6.25200 -0.06574
6.25400 -0.06113
6.25600 -0.16935
6.25800 0.04418
6.26000 -0.11924
6.26200 0.05425
6.26400 0.04428
6.26600 0.01481
6.26800 -0.03841
6.27000 0.08704
6.27200 -0.02010
6.27400 0.03459
6.27600 -0.15589
6.27800 -0.01248
6.28000 -0.01670
6.28200 0.02430
6.28400 -0.03946
6.28600 0.00593
6.28800 0.07474
6.29000 -0.00282
6.29200 0.08435
6.29400 0.08054
6.29600 0.09158
6.29800 0.06817
6.30000 0.14002
6.30200 -0.02764
6.30400 0.10710
6.30600 0.03892
6.30800 0.05427
6.31000 -0.04602
6.31200 0.00737
6.31400 -0.02712
6.31600 -0.10074
6.31800 -0.05843
6.32000 -0.08057
6.32200 -0.00372
6.32400 -0.00296
6.32600 0.02622
6.32800 0.13381
6.33000 0.11547
6.33200 0.07777
6.33400 -0.06089
6.33600 -0.06388
6.33800 0.05742
6.34000 -0.00742
6.34200 -0.03884
6.34400 0.04405
6.34600 -0.00711
6.34800 -0.02165
6.35000 -0.04331
6.35200 -0.01072
6.35400 -0.08019
6.35600 0.06004
6.35800 0.01252
6.36000 0.00643
6.36200 0.05735
6.36400 0.04181
6.36600 -0.04258
6.36800 -0.02008
6.37000 0.02106
6.37200 -0.02023
6.37400 0.04318
6.37600 -0.04890
6.37800 0.01717
6.38000 0.12644
6.38200 -0.07925
6.38400 0.00486
6.38600 0.06979
6.38800 -0.16483
6.39000 0.09045
6.39200 -0.12977
6.39400 -0.04788
6.39600 -0.03000
6.39800 -0.03172
6.40000 -0.02845
6.40200 -0.07229
6.40400 0.04109
6.40600 -0.00937
6.40800 -0.05872
6.41000 -0.05506
6.41200 0.08029
6.41400 0.05685
6.41600 -0.00866
6.41800 0.03448
6.42000 0.00644
6.42200 -0.03734
6.42400 0.00909
6.42600 -0.01906
6.42800 -0.00400
6.43000 0.03553
6.43200 0.02813
6.43400 -0.03002
6.43600 -0.05823
6.43800 -0.04445
6.44000 -0.10772
6.44200 -0.10878
6.44400 -0.10808
6.44600 0.07229
6.44800 0.10014
6.45000 -0.03988
6.45200 0.03708
6.45400 0.06590
6.45600 0.02401
6.45800 0.04033
6.46000 -0.07574
6.46200 -0.03826
6.46400 0.06827
6.46600 0.02940
6.46800 -0.04146
6.47000 -0.06298
6.47200 -0.00199
6.47400 0.03767
6.47600 -0.00770
6.47800 0.04724
6.48000 0.06565
6.48200 0.05741
6.48400 -0.00234
6.48600 -0.16164
6.48800 -0.02267
6.49000 0.10420
6.49200 -0.02494
6.49400 0.08981
6.49600 0.01243
6.49800 -0.06196
6.50000 0.06807
6.50200 0.06752
6.50400 -0.02077
6.50600 -0.00420
6.50800 0.10159
6.51000 0.05297
6.51200 0.01862
6.51400 -0.01512
6.51600 -0.10062
6.51800 -0.00822
6.52000 0.04674
6.52200 -0.14459
6.52400 -0.01478
6.52600 0.05915
6.52800 -0.04498
6.53000 0.08243
6.53200 0.05118
6.53400 0.11762
6.53600 -0.08800
6.53800 -0.08363
6.54000 -0.08480
6.54200 -0.05236
6.54400 0.11050
6.54600 0.06756
6.54800 0.08089
6.55000 -0.04435
6.55200 -0.15034
6.55400 -0.05001
6.55600 -0.00082
6.55800 -0.06509
6.56000 -0.02548
6.56200 0.04757
6.56400 -0.08214
6.56600 0.04002
6.56800 -0.08656
6.57000 0.02777
6.57200 0.04822
6.57400 0.01060
6.57600 0.03074
6.57800 0.02817
6.58000 -0.04347
6.58200 0.07328
6.58400 0.06155
6.58600 0.12949
6.58800 -0.08417
6.59000 0.03563
6.59200 -0.03947
6.59400 0.05737
6.59600 -0.05849
6.59800 -0.04135
6.60000 -0.00752
6.60200 -0.05090
6.60400 -0.01766
6.60600 -0.08638
6.60800 0.05916
6.61000 -0.03311
6.61200 0.00430
6.61400 -0.07755
6.61600 -0.05456
6.61800 -0.08048
6.62000 -0.11570
6.62200 0.06773
6.62400 -0.03174
6.62600 0.06079
6.62800 -0.00249
6.63000 -0.12696
6.63200 0.07746
6.63400 0.01048
6.63600 -0.05635
6.63800 0.09679
6.64000 0.02467
6.64200 0.01158
6.64400 -0.04866
6.64600 0.03573
6.64800 -0.02185
6.65000 0.02824
6.65200 0.07168
6.65400 0.01685
6.65600 -0.10230
6.65800 0.06845
6.66000 -0.02036
6.66200 -0.00021
6.66400 -0.02414
6.66600 0.00333
6.66800 -0.01301
6.67000 -0.01962
6.67200 -0.12637
6.67400 0.13396
6.67600 0.03038
6.67800 -0.06985
6.68000 0.04605
6.68200 0.00512
6.68400 0.00901
6.68600 0.04102
6.68800 -0.07922
6.69000 0.03416
6.69200 0.09696
6.69400 0.30883
6.69600 0.93957
6.69800 1.41935
6.70000 1.37857
6.70200 0.82740
6.70400 0.32363
6.70600 0.16033
6.70800 0.06664
6.71000 -0.06186
6.71200 -0.03350
6.71400 0.06131
6.71600 -0.05880
6.71800 0.03948
6.72000 0.06717
6.72200 0.02467
6.72400 -0.06397
6.72600 -0.02494
6.72800 -0.02696
6.73000 -0.14413
6.73200 0.01570
6.73400 0.03377
6.73600 0.04092
6.73800 -0.01468
6.74000 0.04625
6.74200 -0.00879
6.74400 0.07089
6.74600 -0.06902
6.74800 0.04236
6.75000 0.01310
6.75200 0.01693
6.75400 -0.03469
6.75600 0.10371
6.75800 -0.00871
6.76000 -0.03550
6.76200 0.05477
6.76400 0.04728
6.76600 0.05051
6.76800 0.06098
6.77000 0.00045
6.77200 -0.03119
6.77400 -0.00281
6.77600 -0.05539
6.77800 -0.01952
6.78000 0.00013
6.78200 0.02481
6.78400 -0.07736
6.78600 -0.00070
6.78800 0.03481
6.79000 -0.07959
6.79200 -0.01090
6.79400 0.02343
6.79600 0.06432
6.79800 -0.06021
6.80000 -0.02468
6.80200 -0.07487
6.80400 -0.11525
6.80600 -0.08322
6.80800 -0.09301
6.81000 0.09223
6.81200 0.06910
6.81400 0.00467
6.81600 0.01929
6.81800 -0.00847
6.82000 0.03410
6.82200 -0.08882
6.82400 0.03284
6.82600 0.03228
6.82800 0.00422
6.83000 -0.05759
6.83200 0.07676
6.83400 0.00692
6.83600 0.00921
6.83800 -0.08693
6.84000 0.06251
6.84200 -0.01795
6.84400 0.06440
6.84600 -0.03721
6.84800 0.16384
6.85000 0.08360
6.85200 0.08997
6.85400 -0.04038
6.85600 -0.06939
6.85800 -0.04722
6.86000 0.04163
6.86200 -0.08925
6.86400 -0.06686
6.86600 0.00328
6.86800 0.07744
6.87000 -0.11424
6.87200 0.02496
6.87400 0.06953
6.87600 0.05678
6.87800 -0.00435
6.88000 0.03606
6.88200 0.07496
6.88400 0.04953
6.88600 0.02384
6.88800 -0.01646
6.89000 -0.00355
6.89200 -0.09848
6.89400 -0.09355
6.89600 -0.03994
6.89800 0.00346
6.90000 -0.01411
6.90200 0.04565
6.90400 0.09443
6.90600 0.04414
6.90800 -0.07495
6.91000 0.05332
6.91200 0.06247
6.91400 0.00768
6.91600 0.05223
6.91800 -0.03368
6.92000 -0.10115
6.92200 0.02240
6.92400 0.00754
6.92600 0.05580
6.92800 0.02583
6.93000 -0.04389
6.93200 -0.01868
6.93400 0.13855
6.93600 -0.04638
6.93800 0.07321
6.94000 -0.00511
6.94200 -0.05483
6.94400 -0.00382
6.94600 0.09321
6.94800 -0.02025
6.95000 0.03533
6.95200 -0.07904
6.95400 -0.02265
6.95600 -0.04703
6.95800 0.02301
6.96000 0.02938
6.96200 -0.00682
6.96400 0.01447
6.96600 -0.00150
6.96800 -0.02351
6.97000 0.00879
6.97200 -0.10170
6.97400 0.02928
6.97600 -0.00512
6.97800 0.08571
6.98000 -0.07726
6.98200 0.02974
6.98400 -0.01350
6.98600 -0.03381
6.98800 -0.01475
6.99000 0.02948
6.99200 0.03246
6.99400 -0.08822
6.99600 -0.02313
6.99800 0.00238
7.00000 -0.01342
7.00200 0.12372
7.00400 -0.05294
7.00600 -0.04352
7.00800 0.01647
7.01000 0.10258
7.01200 -0.08637
7.01400 -0.01841
7.01600 -0.10971
7.01800 0.00328
7.02000 0.01973
7.02200 -0.00678
7.02400 0.06393
7.02600 0.04061
7.02800 0.03318
7.03000 -0.04019
7.03200 -0.03187
7.03400 0.05902
7.03600 -0.09882
7.03800 -0.02349
7.04000 -0.08871
7.04200 -0.03988
7.04400 0.08626
7.04600 -0.02967
7.04800 -0.00269
7.05000 -0.03316
7.05200 -0.02982
7.05400 -0.07563
7.05600 0.03676
7.05800 -0.03641
7.06000 0.03127
7.06200 0.04721
7.06400 0.00676
7.06600 0.02987
7.06800 0.04969
7.07000 0.01908
7.07200 0.03760
7.07400 0.00225
7.07600 0.08114
7.07800 0.07102
7.08000 -0.07214
7.08200 0.02203
7.08400 0.02890
7.08600 0.01477
7.08800 -0.05116
7.09000 -0.02788
7.09200 0.03960
7.09400 0.01289
7.09600 -0.00607
7.09800 0.08362
7.10000 0.00547
7.10200 0.01111
7.10400 0.01737
7.10600 0.03364
7.10800 -0.04853
7.11000 0.00915
7.11200 -0.00527
7.11400 0.15225
7.11600 0.01776
7.11800 -0.00220
7.12000 -0.03978
7.12200 0.01730
7.12400 0.13225
7.12600 0.11102
7.12800 -0.09856
7.13000 0.04355
7.13200 -0.01210
7.13400 -0.00251
7.13600 0.01906
7.13800 -0.02021
7.14000 -0.01430
7.14200 -0.07123
7.14400 -0.01660
7.14600 -0.02903
7.14800 0.00171
7.15000 0.13302
7.15200 -0.09120
7.15400 0.14465
7.15600 -0.01587
7.15800 0.04250
7.16000 0.01044
7.16200 -0.02394
7.16400 0.01538
7.16600 0.07044
7.16800 0.01886
7.17000 -0.02143
7.17200 -0.08773
7.17400 0.09411
7.17600 -0.04518
7.17800 -0.05679
7.18000 -0.07217
7.18200 0.05401
7.18400 -0.05793
7.18600 0.01907
7.18800 0.03555
7.19000 -0.01180
7.19200 -0.04945
7.19400 -0.01055
7.19600 -0.08786
7.19800 0.07240
7.20000 0.10590
7.20200 -0.06736
7.20400 -0.10111
7.20600 -0.04386
7.20800 -0.05468
7.21000 0.05475
7.21200 -0.01755
7.21400 -0.09259
7.21600 0.01441
7.21800 0.05049
7.22000 0.06799
7.22200 0.05179
7.22400 -0.01132
7.22600 0.04973
7.22800 0.00150
7.23000 -0.00865
7.23200 0.04897
7.23400 0.01927
7.23600 0.00553
7.23800 0.11787
7.24000 0.05630
7.24200 -0.08503
7.24400 0.06798
7.24600 0.06089
7.24800 -0.15994
7.25000 0.14687
7.25200 -0.04879
7.25400 0.01655
7.25600 0.03523
7.25800 0.06145
7.26000 0.01472
7.26200 -0.01069
7.26400 -0.07851
7.26600 0.07638
7.26800 -0.05586
7.27000 0.00595
7.27200 0.04971
7.27400 0.13661
7.27600 0.33570
7.27800 0.77396
7.28000 1.23488
7.28200 1.49880
7.28400 1.05093
7.28600 0.55427
7.28800 0.08992
7.29000 0.11406
7.29200 -0.07750
7.29400 -0.02845
7.29600 0.07624
7.29800 0.00779
7.30000 0.02122
7.30200 0.04355
7.30400 0.06248
7.30600 0.02651
7.30800 -0.01035
7.31000 -0.03426
7.31200 0.08235
7.31400 0.08531
7.31600 0.06365
7.31800 -0.01361
7.32000 0.04591
7.32200 -0.02257
7.32400 0.11354
7.32600 -0.08957
7.32800 0.05977
7.33000 0.04360
7.33200 0.07518
7.33400 0.07593
7.33600 -0.03652
7.33800 0.01866
7.34000 -0.02273
7.34200 -0.03953
7.34400 -0.01607
7.34600 0.05061
7.34800 -0.04526
7.35000 0.02970
7.35200 0.01786
7.35400 -0.08352
7.35600 0.05390
7.35800 -0.06509
7.36000 0.09333
7.36200 0.03496
7.36400 0.01708
7.36600 -0.03977
7.36800 0.00994
7.37000 0.06003
7.37200 0.01616
7.37400 -0.05321
7.37600 -0.04285
7.37800 -0.02976
7.38000 0.03784
7.38200 -0.03296
7.38400 0.07817
7.38600 0.02919
7.38800 0.03956
7.39000 -0.01340
7.39200 -0.01976
7.39400 0.06556
7.39600 0.03013
7.39800 -0.09752
7.40000 -0.09902
7.40200 -0.08469
7.40400 0.05417
7.40600 0.00072
7.40800 -0.01923
7.41000 0.12802
7.41200 -0.00838
7.41400 -0.08059
7.41600 -0.04480
7.41800 0.05210
7.42000 0.02774
7.42200 -0.03874
7.42400 -0.05070
7.42600 0.00183
7.42800 -0.03036
7.43000 -0.06468
7.43200 0.12725
7.43400 0.02573
7.43600 -0.07386
7.43800 0.08589
7.44000 -0.05423
7.44200 0.11082
7.44400 0.09643
7.44600 -0.03734
7.44800 -0.12080
7.45000 -0.03566
7.45200 -0.06959
7.45400 0.00214
7.45600 0.01355
7.45800 -0.08734
7.46000 0.01348
7.46200 -0.02239
7.46400 -0.05968
7.46600 0.05649
7.46800 -0.00415
7.47000 0.08702
7.47200 0.05066
7.47400 -0.02256
7.47600 -0.01854
7.47800 -0.06733
7.48000 0.00206
7.48200 -0.00126
7.48400 -0.00352
7.48600 0.06158
7.48800 0.03517
7.49000 -0.11191
7.49200 -0.02177
7.49400 -0.03839
7.49600 -0.01935
7.49800 0.06715
7.50000 0.02199
7.50200 -0.07115
7.50400 0.03385
7.50600 0.05592
7.50800 -0.18341
7.51000 0.03133
7.51200 0.03489
7.51400 0.01037
7.51600 0.04066
7.51800 -0.03337
7.52000 0.12324
7.52200 -0.06102
7.52400 -0.07877
7.52600 -0.03294
7.52800 -0.04789
7.53000 -0.04742
7.53200 0.06817
7.53400 0.03636
7.53600 0.10834
7.53800 0.02877
7.54000 0.11227
7.54200 -0.05682
7.54400 0.02560
7.54600 -0.09084
7.54800 -0.05117
7.55000 0.02712
7.55200 -0.02909
7.55400 0.08119
7.55600 0.08245
7.55800 0.03232
7.56000 -0.00415
7.56200 -0.05330
7.56400 -0.05054
7.56600 0.05937
7.56800 0.04362
7.57000 0.00271
7.57200 0.09650
7.57400 -0.05731
7.57600 0.02307
7.57800 0.05851
7.58000 0.03479
7.58200 -0.03939
7.58400 -0.02663
7.58600 0.14077
7.58800 0.07631
7.59000 -0.07661
7.59200 0.01750
7.59400 0.14173
7.59600 0.05582
7.59800 -0.09974
7.60000 0.07095
7.60200 -0.07498
7.60400 0.10915
7.60600 -0.00693
7.60800 0.09099
7.61000 0.01803
7.61200 0.00490
7.61400 0.00651
7.61600 -0.00153
7.61800 -0.07923
7.62000 -0.05808
7.62200 -0.02844
7.62400 0.00354
7.62600 0.00515
7.62800 -0.05054
7.63000 -0.05457
7.63200 -0.09868
7.63400 0.01405
7.63600 -0.02185
7.63800 -0.01284
7.64000 0.09489
7.64200 0.12715
7.64400 0.04636
7.64600 -0.04738
7.64800 -0.01629
7.65000 0.06478
7.65200 0.03699
7.65400 0.01959
7.65600 0.06267
7.65800 0.02866
7.66000 -0.00886
7.66200 0.04342
7.66400 -0.00805
7.66600 -0.06355
7.66800 -0.03779
7.67000 0.01883
7.67200 -0.01216
7.67400 0.05944
7.67600 0.03391
7.67800 -0.01709
7.68000 -0.04670
7.68200 0.05213
7.68400 -0.01277
7.68600 -0.00274
7.68800 -0.01268
7.69000 -0.00102
7.69200 -0.01501
7.69400 -0.01315
7.69600 -0.05637
7.69800 -0.04993
7.70000 0.05226
7.70200 0.01168
7.70400 0.01867
7.70600 -0.08421
7.70800 -0.09741
7.71000 -0.09453
7.71200 -0.01231
7.71400 0.05766
7.71600 0.06610
7.71800 0.02835
7.72000 0.00047
7.72200 -0.01912
7.72400 -0.09889
7.72600 0.00394
7.72800 0.01485
7.73000 0.00701
7.73200 -0.00886
7.73400 -0.06629
7.73600 -0.01797
7.73800 0.02577
7.74000 -0.06633
7.74200 -0.09569
7.74400 0.01001
7.74600 -0.01707
7.74800 0.08411
7.75000 -0.02885
7.75200 -0.03428
7.75400 0.00370
7.75600 -0.06174
7.75800 -0.08680
7.76000 -0.01951
7.76200 -0.03457
7.76400 -0.13246
7.76600 0.02425
7.76800 -0.05725
7.77000 0.00270
7.77200 -0.06104
7.77400 0.02376
7.77600 -0.04263
7.77800 -0.03524
7.78000 -0.08713
7.78200 0.02129
7.78400 0.13817
7.78600 0.08426
7.78800 0.11731
7.79000 0.04794
7.79200 -0.05820
7.79400 0.01911
7.79600 -0.00449
7.79800 -0.10722
7.80000 0.03090
7.80200 0.01721
7.80400 -0.05383
7.80600 -0.01610
7.80800 -0.00065
7.81000 -0.03464
7.81200 0.00539
7.81400 0.13186
7.81600 -0.03592
7.81800 -0.05844
7.82000 0.04729
7.82200 0.05854
7.82400 -0.08460
7.82600 -0.04248
7.82800 -0.00450
7.83000 0.01111
7.83200 -0.08411
7.83400 -0.04021
7.83600 -0.02142
7.83800 0.06508
7.84000 0.01018
7.84200 -0.00147
7.84400 0.04900
7.84600 0.12120
7.84800 0.00816
7.85000 0.04859
7.85200 0.06414
7.85400 0.06286
7.85600 0.08262
7.85800 0.17563
7.86000 0.58164
7.86200 1.09918
7.86400 1.44732
7.86600 1.27825
7.86800 0.71931
7.87000 0.29692
7.87200 0.05859
7.87400 0.02242
7.87600 -0.05614
7.87800 0.01150
7.88000 0.06340
7.88200 0.04254
7.88400 -0.10508
7.88600 0.06610
7.88800 -0.11838
7.89000 -0.01553
7.89200 0.07884
7.89400 -0.00488
7.89600 -0.02068
7.89800 -0.05627
7.90000 0.01631
7.90200 -0.01832
7.90400 -0.02822
7.90600 -0.00412
7.90800 -0.08923
7.91000 -0.01815
7.91200 0.05677
7.91400 0.02765
7.91600 0.02144
7.91800 -0.03021
7.92000 0.01516
7.92200 -0.03259
7.92400 -0.00588
7.92600 0.15206
7.92800 0.03827
7.93000 -0.10114
7.93200 -0.05218
7.93400 0.04329
7.93600 0.09637
7.93800 -0.09901
7.94000 0.07457
7.94200 0.01522
7.94400 0.01960
7.94600 0.08017
7.94800 -0.07139
7.95000 -0.00101
7.95200 0.04891
7.95400 -0.00400
7.95600 -0.15544
7.95800 0.00502
7.96000 -0.01475
7.96200 0.04930
7.96400 -0.11190
7.96600 -0.03103
7.96800 0.00487
7.97000 -0.05583
7.97200 -0.01900
7.97400 0.14879
7.97600 0.11163
7.97800 -0.09873
7.98000 0.09847
7.98200 -0.00096
7.98400 -0.04893
7.98600 0.04015
7.98800 0.05408
7.99000 0.04024
7.99200 -0.08263
7.99400 0.09693
7.99600 -0.05964
7.99800 -0.03436
8.00000 -0.01477
8.00200 -0.00845
8.00400 0.05423
8.00600 -0.02173
8.00800 0.02684
8.01000 0.03592
8.01200 -0.02372
8.01400 -0.09111
8.01600 0.06306
8.01800 0.01436
8.02000 -0.00068
8.02200 0.06652
8.02400 -0.00725
8.02600 -0.01579
8.02800 0.00370
8.03000 0.02000
8.03200 0.04014
8.03400 -0.08649
8.03600 -0.01725
8.03800 0.07247
8.04000 -0.08327
8.04200 0.11305
8.04400 0.04369
8.04600 0.01119
8.04800 0.06653
8.05000 -0.01425
8.05200 -0.00604
8.05400 -0.04931
8.05600 -0.07228
8.05800 -0.04368
8.06000 0.05045
8.06200 -0.01625
8.06400 0.14056
8.06600 -0.00462
8.06800 0.05841
8.07000 -0.11587
8.07200 -0.05155
8.07400 0.22788
8.07600 -0.12904
8.07800 -0.05816
8.08000 0.03117
8.08200 0.01202
8.08400 -0.04846
8.08600 -0.00751
8.08800 -0.02140
8.09000 -0.06521
8.09200 -0.03889
8.09400 0.00199
8.09600 0.03792
8.09800 -0.01402
8.10000 -0.04472
8.10200 0.03260
8.10400 0.12011
8.10600 -0.02428
8.10800 0.08522
8.11000 -0.01006
8.11200 0.03338
8.11400 -0.08509
8.11600 0.07760
8.11800 0.03034
8.12000 0.04596
8.12200 0.16165
8.12400 -0.07071
8.12600 0.00367
8.12800 0.02638
8.13000 0.02827
8.13200 -0.04830
8.13400 -0.01672
8.13600 0.07676
8.13800 -0.00275
8.14000 0.00626
8.14200 0.02377
8.14400 0.00479
8.14600 -0.09811
8.14800 -0.00430
8.15000 -0.01587
8.15200 0.07659
8.15400 0.05499
8.15600 0.04806
8.15800 -0.09380
8.16000 0.04810
8.16200 -0.06195
8.16400 -0.05527
8.16600 -0.02769
8.16800 0.01900
8.17000 -0.02330
8.17200 0.01092
8.17400 0.02405
8.17600 0.07653
8.17800 0.01039
8.18000 0.04060
8.18200 0.08118
8.18400 -0.02809
8.18600 -0.00615
8.18800 0.00580
8.19000 0.03019
8.19200 -0.02554
8.19400 0.01459
8.19600 -0.00005
8.19800 0.01700
8.20000 -0.01613
8.20200 -0.08142
8.20400 0.01481
8.20600 0.03149
8.20800 0.02140
8.21000 0.05383
8.21200 -0.01779
8.21400 0.01404
8.21600 -0.11920
8.21800 0.07125
8.22000 -0.05829
8.22200 0.13556
8.22400 0.00880
8.22600 0.03656
8.22800 0.07340
8.23000 0.01741
8.23200 -0.02895
8.23400 0.02849
8.23600 -0.03371
8.23800 0.01112
8.24000 -0.03885
8.24200 0.01668
8.24400 0.02035
8.24600 0.07504
8.24800 0.01250
8.25000 -0.01785
8.25200 0.02717
8.25400 -0.12217
8.25600 0.07158
8.25800 -0.07149
8.26000 0.01837
8.26200 -0.05797
8.26400 0.02514
8.26600 0.03763
8.26800 0.13126
8.27000 0.10966
8.27200 -0.09075
8.27400 -0.08282
8.27600 -0.02550
8.27800 -0.11704
8.28000 -0.06049
8.28200 -0.03517
8.28400 0.14147
8.28600 0.05174
8.28800 -0.15898
8.29000 0.00490
8.29200 -0.01498
8.29400 0.00543
8.29600 0.08667
8.29800 -0.07805
8.30000 0.01776
8.30200 -0.06142
8.30400 -0.09346
8.30600 -0.00255
8.30800 0.07839
8.31000 -0.02626
8.31200 -0.03399
8.31400 0.05839
8.31600 0.00634
8.31800 -0.04181
8.32000 -0.05635
8.32200 0.04836
8.32400 -0.05197
8.32600 0.01980
8.32800 -0.02821
8.33000 0.02000
8.33200 0.04305
8.33400 -0.00879
8.33600 -0.06925
8.33800 -0.03139
8.34000 -0.03050
8.34200 0.02126
8.34400 -0.11291
8.34600 -0.03548
8.34800 0.05128
8.35000 -0.00024
8.35200 -0.03968
8.35400 0.10154
8.35600 -0.09845
8.35800 0.05567
8.36000 0.01154
8.36200 0.06235
8.36400 -0.02753
8.36600 0.03415
8.36800 0.04853
8.37000 0.08787
8.37200 0.04377
8.37400 -0.03314
8.37600 -0.10194
8.37800 0.06786
8.38000 -0.03873
8.38200 0.00682
8.38400 -0.06229
8.38600 0.00958
8.38800 0.08341
8.39000 -0.05378
8.39200 -0.04085
8.39400 0.04994
8.39600 -0.03159
8.39800 0.11085
8.40000 -0.00014
8.40200 -0.04447
8.40400 -0.04911
8.40600 -0.16145
8.40800 0.10180
8.41000 -0.02618
8.41200 -0.06997
8.41400 0.07488
8.41600 -0.03969
8.41800 -0.01404
8.42000 0.04413
8.42200 0.10295
8.42400 0.12049
8.42600 -0.05996
8.42800 0.01717
8.43000 0.05452
8.43200 -0.03509
8.43400 -0.01835
8.43600 0.01655
8.43800 0.09095
8.44000 0.12597
8.44200 0.42216
8.44400 1.07711
8.44600 1.44098
8.44800 1.30987
8.45000 0.88840
8.45200 0.32627
8.45400 -0.01933
8.45600 -0.02771
8.45800 0.03206
8.46000 0.08636
8.46200 0.11966
8.46400 0.05745
8.46600 -0.00888
8.46800 0.03842
8.47000 -0.01167
8.47200 0.03287
8.47400 0.07539
8.47600 -0.09068
8.47800 -0.01882
8.48000 0.00654
8.48200 0.04228
8.48400 0.06712
8.48600 -0.10886
8.48800 0.03062
8.49000 -0.03316
8.49200 0.17395
8.49400 -0.04183
8.49600 0.05087
8.49800 0.01717
8.50000 0.03780
8.50200 0.04011
8.50400 0.02156
8.50600 0.04573
8.50800 0.01907
8.51000 0.05297
8.51200 0.04936
8.51400 0.05133
8.51600 -0.00247
8.51800 -0.01883
8.52000 -0.03209
8.52200 0.01108
8.52400 0.03936
8.52600 -0.05128
8.52800 -0.08542
8.53000 -0.02212
8.53200 0.06536
8.53400 -0.07833
8.53600 -0.05119
8.53800 0.01351
8.54000 0.05002
8.54200 -0.00832
8.54400 -0.08605
8.54600 0.05281
8.54800 0.00653
8.55000 -0.03538
8.55200 -0.02461
8.55400 -0.03090
8.55600 0.05093
8.55800 -0.05731
8.56000 0.04336
8.56200 -0.00834
8.56400 -0.09975
8.56600 -0.00243
8.56800 -0.00532
8.57000 0.00675
8.57200 -0.03263
8.57400 -0.00943
8.57600 -0.00654
8.57800 0.02921
8.58000 -0.07346
8.58200 0.02281
8.58400 -0.05187
8.58600 -0.04863
8.58800 0.02281
8.59000 0.04568
8.59200 0.04536
8.59400 0.04222
8.59600 0.02185
8.59800 -0.00262
8.60000 -0.05804
8.60200 -0.09972
8.60400 -0.00192
8.60600 -0.00287
8.60800 0.04367
8.61000 -0.03204
8.61200 -0.03186
8.61400 0.09278
8.61600 -0.00357
8.61800 0.04773
8.62000 -0.02309
8.62200 0.10929
8.62400 0.07649
8.62600 -0.10839
8.62800 -0.06470
8.63000 0.00380
8.63200 -0.03186
8.63400 0.02377
8.63600 -0.00640
8.63800 -0.06698
8.64000 0.08178
8.64200 0.01610
8.64400 -0.08187
8.64600 -0.03471
8.64800 -0.04668
8.65000 0.00415
8.65200 0.06249
8.65400 -0.05117
8.65600 -0.01846
8.65800 -0.08417
8.66000 -0.03248
8.66200 -0.03182
8.66400 0.04551
8.66600 0.06024
8.66800 -0.04142
8.67000 0.01793
8.67200 0.01804
8.67400 0.09470
8.67600 -0.04566
8.67800 0.13123
8.68000 0.09755
8.68200 -0.01713
8.68400 -0.01552
8.68600 0.03899
8.68800 -0.00202
8.69000 0.04514
8.69200 0.01310
8.69400 0.02952
8.69600 -0.08369
8.69800 -0.08757
8.70000 0.13374
8.70200 -0.00198
8.70400 -0.03628
8.70600 -0.08259
8.70800 -0.06388
8.71000 -0.00251
8.71200 0.08599
8.71400 -0.02859
8.71600 -0.04797
8.71800 0.03294
8.72000 -0.03279
8.72200 0.04406
8.72400 -0.03181
8.72600 0.04093
8.72800 0.05938
8.73000 0.07203
8.73200 -0.07096
8.73400 -0.15404
8.73600 0.07068
8.73800 -0.03501
8.74000 0.01226
8.74200 0.06739
8.74400 -0.08392
8.74600 0.03976
8.74800 0.07962
8.75000 0.01427
8.75200 0.06358
8.75400 0.00373
8.75600 0.12782
8.75800 -0.01707
8.76000 -0.05135
8.76200 -0.00035
8.76400 0.01015
8.76600 -0.06112
8.76800 0.06042
8.77000 0.03455
8.77200 -0.07128
8.77400 0.08555
8.77600 -0.04709
8.77800 -0.01868
8.78000 0.04180
8.78200 -0.01539
8.78400 -0.00640
8.78600 -0.04998
8.78800 0.00806
8.79000 0.06079
8.79200 0.09874
8.79400 0.03122
8.79600 0.00356
8.79800 -0.02610
8.80000 0.10802
8.80200 0.08709
8.80400 0.08070
8.80600 0.01575
8.80800 -0.06085
8.81000 0.02762
8.81200 -0.07115
8.81400 -0.06721
8.81600 -0.10235
8.81800 0.00201
8.82000 0.07389
8.82200 -0.03063
8.82400 -0.02269
8.82600 -0.02947
8.82800 -0.04067
8.83000 0.04933
8.83200 0.03860
8.83400 0.10929
8.83600 0.08542
8.83800 -0.02117
8.84000 -0.03995
8.84200 -0.00729
8.84400 -0.14252
8.84600 -0.00352
8.84800 -0.04048
8.85000 0.04612
8.85200 -0.03746
8.85400 -0.04472
8.85600 0.00506
8.85800 0.04880
8.86000 -0.01886
8.86200 0.03050
8.86400 0.08234
8.86600 -0.09120
8.86800 -0.02698
8.87000 -0.00811
8.87200 0.02499
8.87400 -0.04081
8.87600 -0.11696
8.87800 0.06558
8.88000 0.06753
8.88200 -0.00579
8.88400 -0.03104
8.88600 -0.03934
8.88800 0.07773
8.89000 -0.03005
8.89200 0.03217
8.89400 0.07824
8.89600 0.01489
8.89800 -0.14129
8.90000 0.01585
8.90200 0.03443
8.90400 0.04069
8.90600 0.12173
8.90800 0.04357
8.91000 -0.02968
8.91200 0.01371
8.91400 0.04967
8.91600 0.05053
8.91800 0.07848
8.92000 -0.11657
8.92200 0.04048
8.92400 0.00543
8.92600 0.04152
8.92800 0.02917
8.93000 0.06243
8.93200 -0.08674
8.93400 0.00243
8.93600 0.03883
8.93800 -0.01297
8.94000 -0.04532
8.94200 0.00366
8.94400 -0.00979
8.94600 -0.06662
8.94800 0.03807
8.95000 0.01934
8.95200 0.00756
8.95400 -0.13515
8.95600 -0.08734
8.95800 0.02091
8.96000 -0.01199
8.96200 0.00719
8.96400 0.07476
8.96600 -0.03255
8.96800 -0.05176
8.97000 0.05699
8.97200 0.03497
8.97400 0.08601
8.97600 0.07919
8.97800 0.00645
8.98000 0.04861
8.98200 0.07293
8.98400 0.03381
8.98600 0.07008
8.98800 -0.05572
8.99000 -0.02925
8.99200 0.07210
8.99400 -0.08353
8.99600 -0.01802
8.99800 0.09404
9.00000 0.12421
9.00200 -0.00148
9.00400 0.12941
9.00600 -0.06619
9.00800 0.03160
9.01000 -0.02539
9.01200 0.00980
9.01400 -0.01510
9.01600 -0.00988
9.01800 0.05519
9.02000 -0.03881
9.02200 0.09830
9.02400 0.35475
9.02600 0.86625
9.02800 1.32055
9.03000 1.48697
9.03200 0.97694
9.03400 0.51541
9.03600 0.21001
9.03800 0.10769
9.04000 -0.08825
9.04200 0.07538
9.04400 0.12990
9.04600 -0.02102
9.04800 -0.03786
9.05000 0.05446
9.05200 0.07341
9.05400 0.09502
9.05600 -0.05767
9.05800 -0.10916
9.06000 -0.02949
9.06200 -0.08459
9.06400 -0.03464
9.06600 -0.04826
9.06800 -0.02742
9.07000 0.01034
9.07200 -0.11234
9.07400 0.05885
9.07600 0.02693
9.07800 0.15064
9.08000 0.02294
9.08200 -0.01052
9.08400 -0.00523
9.08600 0.10639
9.08800 0.00510
9.09000 0.09306
9.09200 -0.15086
9.09400 0.04338
9.09600 -0.03939
9.09800 -0.00768
9.10000 -0.03803
9.10200 0.08051
9.10400 -0.01989
9.10600 0.00151
9.10800 0.01945
9.11000 -0.08425
9.11200 0.06283
9.11400 0.03073
9.11600 -0.06612
9.11800 0.01875
9.12000 0.11039
9.12200 -0.01311
9.12400 -0.04879
9.12600 -0.07994
9.12800 0.03631
9.13000 -0.09653
9.13200 -0.04065
9.13400 -0.05587
9.13600 0.07481
9.13800 0.04768
9.14000 -0.00090
9.14200 -0.01343
9.14400 -0.02729
9.14600 -0.00301
9.14800 0.11289
9.15000 -0.02174
9.15200 -0.00153
9.15400 -0.04631
9.15600 0.04989
9.15800 0.00097
9.16000 -0.00609
9.16200 0.03804
9.16400 0.07683
9.16600 0.12568
9.16800 0.04620
9.17000 0.05063
9.17200 0.07084
9.17400 -0.06240
9.17600 0.08365
9.17800 -0.09725
9.18000 -0.03858
9.18200 0.04997
9.18400 0.03866
9.18600 0.06465
9.18800 -0.04959
9.19000 0.03179
9.19200 0.03608
9.19400 -0.00593
9.19600 -0.07316
9.19800 0.01505
9.20000 0.04432
9.20200 0.08664
9.20400 -0.00760
9.20600 -0.04264
9.20800 0.00009
9.21000 0.06729
9.21200 0.10996
9.21400 -0.11073
9.21600 0.01885
9.21800 -0.14458
9.22000 0.10531
9.22200 -0.03500
9.22400 -0.01340
9.22600 -0.01854
9.22800 -0.01238
9.23000 0.03614
9.23200 0.03740
9.23400 0.02747
9.23600 0.02926
9.23800 -0.11846
9.24000 0.02092
9.24200 -0.02857
9.24400 -0.06950
9.24600 0.05306
9.24800 -0.18540
9.25000 0.04839
9.25200 -0.04580
9.25400 -0.05836
9.25600 0.04499
9.25800 -0.00445
9.26000 -0.02565
9.26200 -0.04403
9.26400 -0.04884
9.26600 0.07857
9.26800 -0.02188
9.27000 -0.04523
9.27200 0.02175
9.27400 0.00001
9.27600 -0.03232
9.27800 0.01700
9.28000 -0.04387
9.28200 0.03050
9.28400 -0.11244
9.28600 -0.13547
9.28800 0.04641
9.29000 -0.00116
9.29200 -0.02594
9.29400 0.00513
9.29600 -0.01653
9.29800 0.10977
9.30000 -0.16185
9.30200 0.14956
9.30400 -0.00587
9.30600 -0.04116
9.30800 0.06407
9.31000 0.02912
9.31200 -0.01585
9.31400 -0.04798
9.31600 0.04331
9.31800 0.07769
9.32000 -0.00051
9.32200 -0.00938
9.32400 0.10667
9.32600 0.00113
9.32800 -0.01115
9.33000 -0.01180
9.33200 0.00971
9.33400 0.04551
9.33600 0.06850
9.33800 -0.00680
9.34000 0.07509
9.34200 -0.02798
9.34400 0.05547
9.34600 -0.02688
9.34800 0.04001
9.35000 0.05752
9.35200 -0.03293
9.35400 -0.04606
9.35600 -0.12338
9.35800 0.05833
9.36000 0.08554
9.36200 -0.00280
9.36400 0.01014
9.36600 0.01092
9.36800 0.08377
9.37000 0.03968
9.37200 0.00293
9.37400 0.03146
9.37600 -0.06981
9.37800 -0.03954
9.38000 -0.03222
9.38200 0.02616
9.38400 0.05001
9.38600 -0.03948
9.38800 -0.05714
9.39000 -0.03148
9.39200 -0.04886
9.39400 -0.06655
9.39600 0.01323
9.39800 -0.05525
9.40000 -0.02472
9.40200 -0.13403
9.40400 0.08170
9.40600 0.00830
9.40800 0.02700
9.41000 0.05515
9.41200 0.05308
9.41400 -0.03271
9.41600 -0.08086
9.41800 0.08189
9.42000 -0.06617
9.42200 0.01096
9.42400 0.01065
9.42600 -0.06305
9.42800 -0.00049
9.43000 0.05411
9.43200 -0.00387
9.43400 -0.08778
9.43600 0.02064
9.43800 -0.01412
9.44000 0.03476
9.44200 0.11517
9.44400 0.07557
9.44600 0.00570
9.44800 -0.00673
9.45000 -0.10406
9.45200 -0.00185
9.45400 -0.04608
9.45600 -0.00320
9.45800 -0.03098
9.46000 0.04919
9.46200 0.02021
9.46400 0.02331
9.46600 0.01025
9.46800 0.04220
9.47000 -0.00832
9.47200 0.01914
9.47400 0.07474
9.47600 -0.05129
9.47800 -0.08889
9.48000 -0.00911
9.48200 -0.03882
9.48400 -0.08934
9.48600 0.08665
9.48800 -0.00381
9.49000 -0.01298
9.49200 0.11514
9.49400 0.05048
9.49600 -0.05222
9.49800 -0.00432
9.50000 -0.04012
9.50200 -0.06296
9.50400 -0.09403
9.50600 0.15838
9.50800 -0.05330
9.51000 -0.00779
9.51200 0.03974
9.51400 0.01154
9.51600 0.02423
9.51800 0.04007
9.52000 0.04867
9.52200 -0.05292
9.52400 -0.07502
9.52600 -0.03790
9.52800 0.01419
9.53000 0.03865
9.53200 -0.13633
9.53400 -0.02638
9.53600 -0.06521
9.53800 -0.09477
9.54000 -0.12644
9.54200 0.01231
9.54400 -0.07619
9.54600 0.02874
9.54800 0.04988
9.55000 -0.00199
9.55200 0.08266
9.55400 -0.01065
9.55600 -0.02901
9.55800 0.05092
9.56000 0.00481
9.56200 0.02822
9.56400 0.15995
9.56600 -0.01697
9.56800 0.02108
9.57000 0.01608
9.57200 0.14934
9.57400 0.02578
9.57600 0.00841
9.57800 0.01634
9.58000 0.06820
9.58200 0.02745
9.58400 0.05343
9.58600 -0.00818
9.58800 0.02771
9.59000 -0.05411
9.59200 -0.12070
9.59400 0.05950
9.59600 0.02074
9.59800 -0.04860
9.60000 -0.08152
9.60200 0.03765
9.60400 -0.04474
9.60600 0.23387
9.60800 0.77646
9.61000 1.28847
9.61200 1.52753
9.61400 1.23364
9.61600 0.61220
9.61800 0.23990
9.62000 0.00742
9.62200 0.03744
9.62400 -0.06499
9.62600 -0.03192
9.62800 -0.03066
9.63000 0.00513
9.63200 -0.10334
9.63400 -0.04150
9.63600 -0.04584
9.63800 -0.06172
9.64000 -0.02048
9.64200 -0.03583
9.64400 0.03629
9.64600 0.06070
9.64800 0.08765
9.65000 0.00690
9.65200 -0.03291
9.65400 -0.00479
9.65600 -0.06216
9.65800 -0.03479
9.66000 -0.00305
9.66200 0.01438
9.66400 -0.06087
9.66600 -0.07177
9.66800 -0.02640
9.67000 0.01940
9.67200 0.08015
9.67400 -0.04738
9.67600 -0.06016
9.67800 -0.00338
9.68000 -0.06676
9.68200 0.13403
9.68400 0.06399
9.68600 -0.04110
9.68800 -0.03924
9.69000 0.03595
9.69200 0.02557
9.69400 0.01815
9.69600 0.01711
9.69800 -0.03223
9.70000 -0.04759
9.70200 -0.06431
9.70400 0.05409
9.70600 0.01970
9.70800 0.07664
9.71000 0.04906
9.71200 0.05091
9.71400 -0.12244
9.71600 -0.01195
9.71800 -0.02660
9.72000 -0.01351
9.72200 0.02432
9.72400 -0.04941
9.72600 -0.09064
9.72800 0.01405
9.73000 -0.02548
9.73200 0.13127
9.73400 -0.05448
9.73600 -0.03218
9.73800 0.02987
9.74000 -0.05288
9.74200 -0.03487
9.74400 -0.00253
9.74600 0.05179
9.74800 0.02943
9.75000 0.02642
9.75200 0.04542
9.75400 -0.09010
9.75600 -0.01578
9.75800 0.03159
9.76000 -0.07236
9.76200 0.00587
9.76400 0.03990
9.76600 -0.04817
9.76800 0.01915
9.77000 0.07810
9.77200 -0.08460
9.77400 -0.09803
9.77600 -0.07430
9.77800 -0.00094
9.78000 0.07486
9.78200 0.01201
9.78400 -0.04310
9.78600 0.02000
9.78800 0.03997
9.79000 -0.04381
9.79200 -0.07220
9.79400 0.02019
9.79600 -0.01450
9.79800 -0.07660
9.80000 -0.04381
9.80200 0.09184
9.80400 -0.07980
9.80600 0.04609
9.80800 0.02036
9.81000 -0.00446
9.81200 -0.08028
9.81400 -0.11347
9.81600 -0.10959
9.81800 0.03031
9.82000 -0.05311
9.82200 0.06811
9.82400 0.17403
9.82600 0.08640
9.82800 -0.03583
9.83000 0.08630
9.83200 0.01749
9.83400 0.05048
9.83600 0.01796
9.83800 -0.04089
9.84000 -0.02101
9.84200 -0.03101
9.84400 0.04773
9.84600 0.00320
9.84800 0.05627
9.85000 0.06625
9.85200 -0.02869
9.85400 -0.04012
9.85600 -0.05801
9.85800 -0.02622
9.86000 -0.01754
9.86200 0.00858
9.86400 0.06088
9.86600 0.05356
9.86800 0.02610
9.87000 0.02888
9.87200 -0.02045
9.87400 0.13627
9.87600 0.01144
9.87800 0.07321
9.88000 0.12632
9.88200 -0.04750
9.88400 -0.02087
9.88600 -0.04301
9.88800 -0.01740
9.89000 -0.02107
9.89200 0.08403
9.89400 -0.04945
9.89600 0.04854
9.89800 -0.05246
9.90000 -0.04226
9.90200 0.02779
9.90400 0.00086
9.90600 0.00088
9.90800 0.04820
9.91000 0.03301
9.91200 -0.07835
9.91400 0.01236
9.91600 -0.06917
9.91800 -0.04852
9.92000 0.02764
9.92200 -0.00989
9.92400 -0.01038
9.92600 0.05008
9.92800 -0.00286
9.93000 -0.01947
9.93200 0.05688
9.93400 0.08304
9.93600 0.10160
9.93800 0.07436
9.94000 -0.02739
9.94200 0.02921
9.94400 -0.01088
9.94600 -0.01093
9.94800 -0.04195
9.95000 -0.05901
9.95200 -0.01021
9.95400 0.02674
9.95600 0.03290
9.95800 0.00482
9.96000 0.01144
9.96200 0.01386
9.96400 0.02595
9.96600 -0.00263
9.96800 -0.02115
9.97000 -0.07095
9.97200 0.06207
9.97400 -0.05903
9.97600 0.01300
9.97800 0.01037
9.98000 0.11684
9.98200 0.01114
9.98400 -0.00366
9.98600 -0.08098
9.98800 0.01842
9.99000 0.00701
9.99200 -0.05350
9.99400 0.00344
9.99600 0.04840
9.99800 -0.09944
