cas[s]  ekg[mV]
0.00000 -0.06014
0.00200 0.00234
0.00400 0.05064
0.00600 0.01991
0.00800 -0.05841
0.01000 -0.14823
0.01200 0.04934
0.01400 -0.04378
0.01600 0.00486
0.01800 0.04510
0.02000 0.06413
0.02200 0.10822
0.02400 0.13943
0.02600 0.14067
0.02800 -0.07970
0.03000 0.02514
0.03200 -0.07845
0.03400 0.02379
0.03600 0.01446
0.03800 0.00539
0.04000 0.00525
0.04200 -0.02019
0.04400 0.09433
0.04600 -0.00560
0.04800 -0.01650
0.05000 -0.09049
0.05200 0.12855
0.05400 -0.03053
0.05600 0.00569
0.05800 0.03343
0.06000 0.02493
0.06200 0.05168
0.06400 -0.07087
0.06600 -0.00389
0.06800 -0.11401
0.07000 0.02012
0.07200 -0.10029
0.07400 -0.03752
0.07600 0.05113
0.07800 -0.03876
0.08000 0.06680
0.08200 -0.08154
0.08400 -0.07282
0.08600 0.08904
0.08800 0.08307
0.09000 0.07545
0.09200 0.04478
0.09400 -0.00251
0.09600 0.07094
0.09800 -0.01605
0.10000 -0.09692
0.10200 -0.09949
0.10400 -0.05654
0.10600 -0.14684
0.10800 0.11563
0.11000 -0.00263
0.11200 0.00239
0.11400 0.07374
0.11600 -0.04209
0.11800 0.03367
0.12000 0.03890
0.12200 0.07880
0.12400 -0.04348
0.12600 0.00178
0.12800 -0.00973
0.13000 0.06759
0.13200 -0.03690
0.13400 0.00330
0.13600 -0.00339
0.13800 -0.03454
0.14000 0.15457
0.14200 0.04809
0.14400 -0.06150
0.14600 -0.02329
0.14800 0.01342
0.15000 -0.06093
0.15200 -0.01579
0.15400 0.03709
0.15600 0.00304
0.15800 -0.06376
0.16000 -0.03323
0.16200 -0.00802
0.16400 -0.02789
0.16600 -0.03416
0.16800 0.01241
0.17000 0.00147
0.17200 -0.01196
0.17400 0.04187
0.17600 0.07003
0.17800 0.01490
0.18000 -0.07605
0.18200 0.02293
0.18400 0.03709
0.18600 -0.08163
0.18800 0.13303
0.19000 0.00620
0.19200 0.02713
0.19400 -0.05837
0.19600 0.03366
0.19800 -0.00516
0.20000 -0.02082
0.20200 0.00134
0.20400 -0.07038
0.20600 0.04526
0.20800 -0.15817
0.21000 0.03762
0.21200 -0.01951
0.21400 -0.07149
0.21600 -0.00075
0.21800 -0.03992
0.22000 -0.04197
0.22200 0.07527
0.22400 -0.00788
0.22600 -0.04157
0.22800 0.08806
0.23000 -0.01299
0.23200 0.00911
0.23400 0.03093
0.23600 -0.01611
0.23800 0.03910
0.24000 0.04844
0.24200 -0.01252
0.24400 0.12909
0.24600 0.02303
0.24800 0.11821
0.25000 0.00239
0.25200 -0.01434
0.25400 0.03143
0.25600 0.01180
0.25800 -0.06955
0.26000 0.00113
0.26200 0.05329
0.26400 0.02106
0.26600 0.04926
0.26800 0.00749
0.27000 0.04883
0.27200 0.00132
0.27400 0.28811
0.27600 0.45939
0.27800 0.99714
0.28000 1.63263
0.28200 1.33366
0.28400 0.69449
0.28600 0.20155
0.28800 0.02899
0.29000 -0.00257
0.29200 -0.09142
0.29400 -0.03880
0.29600 -0.01191
0.29800 -0.08211
0.30000 0.11300
0.30200 -0.06913
0.30400 0.05557
0.30600 0.07200
0.30800 0.08588
0.31000 0.15318
0.31200 -0.06648
0.31400 -0.02992
0.31600 -0.05567
0.31800 -0.04471
0.32000 -0.07488
0.32200 0.03004
0.32400 0.04755
0.32600 0.06841
0.32800 -0.02311
0.33000 -0.03491
0.33200 -0.04167
0.33400 -0.07500
0.33600 0.08555
0.33800 0.06495
0.34000 0.04478
0.34200 0.00801
0.34400 -0.06304
0.34600 -0.00814
0.34800 -0.08345
0.35000 -0.03213
0.35200 0.03930
0.35400 -0.11270
0.35600 -0.00946
0.35800 0.04758
0.36000 0.05246
0.36200 -0.04732
0.36400 0.04372
0.36600 0.09541
0.36800 -0.08333
0.37000 -0.01690
0.37200 -0.00276
0.37400 -0.00709
0.37600 0.07921
0.37800 -0.06804
0.38000 -0.05667
0.38200 -0.07203
0.38400 0.01314
0.38600 0.09061
0.38800 -0.04601
0.39000 -0.02250
0.39200 0.10750
0.39400 -0.02314
0.39600 -0.02096
0.39800 -0.06534
0.40000 -0.00676
0.40200 -0.04806
0.40400 0.01651
0.40600 0.10219
0.40800 -0.03741
0.41000 0.06005
0.41200 -0.02667
0.41400 -0.07451
0.41600 -0.05884
0.41800 0.06730
0.42000 -0.03345
0.42200 0.01410
0.42400 -0.02855
0.42600 -0.00261
0.42800 0.04672
0.43000 -0.02515
0.43200 0.10084
0.43400 -0.02640
0.43600 -0.08615
0.43800 0.07880
0.44000 0.01699
0.44200 0.08789
0.44400 0.03762
0.44600 0.04968
0.44800 0.02442
0.45000 -0.02044
0.45200 0.06279
0.45400 -0.04538
0.45600 -0.03900
0.45800 -0.05776
0.46000 0.00414
0.46200 -0.00643
0.46400 -0.10915
0.46600 -0.03006
0.46800 0.11226
0.47000 0.06396
0.47200 -0.05322
0.47400 0.02010
0.47600 -0.04390
0.47800 0.04282
0.48000 0.03988
0.48200 -0.05946
0.48400 0.04670
0.48600 0.08303
0.48800 0.14388
0.49000 0.11221
0.49200 -0.01880
0.49400 -0.01770
0.49600 0.06063
0.49800 -0.05065
0.50000 -0.00182
0.50200 -0.00969
0.50400 -0.03530
0.50600 -0.04129
0.50800 0.04139
0.51000 0.05116
0.51200 -0.02832
0.51400 -0.08983
0.51600 -0.01227
0.51800 -0.06059
0.52000 0.04662
0.52200 0.01587
0.52400 -0.05638
0.52600 -0.10550
0.52800 -0.02358
0.53000 -0.12501
0.53200 0.00018
0.53400 0.03495
0.53600 0.07427
0.53800 -0.03340
0.54000 0.06615
0.54200 0.04701
0.54400 0.11014
0.54600 -0.05818
0.54800 0.06048
0.55000 0.02614
0.55200 0.01060
0.55400 0.05412
0.55600 0.02388
0.55800 0.06968
0.56000 0.02514
0.56200 0.02560
0.56400 -0.00305
0.56600 -0.14639
0.56800 -0.05257
0.57000 0.04988
0.57200 0.00730
0.57400 0.06876
0.57600 -0.00007
0.57800 -0.06205
0.58000 0.03137
0.58200 -0.08639
0.58400 -0.00366
0.58600 -0.00477
0.58800 0.02407
0.59000 -0.11553
0.59200 0.08170
0.59400 -0.06633
0.59600 0.01888
0.59800 -0.03064
0.60000 0.01912
0.60200 -0.04221
0.60400 0.11451
0.60600 0.01916
0.60800 0.09125
0.61000 -0.11043
0.61200 0.02256
0.61400 0.05420
0.61600 -0.06296
0.61800 0.01117
0.62000 -0.12906
0.62200 0.05789
0.62400 -0.05756
0.62600 0.00954
0.62800 0.02308
0.63000 -0.06854
0.63200 -0.00363
0.63400 -0.01462
0.63600 0.08638
0.63800 0.00997
0.64000 0.11123
0.64200 -0.02624
0.64400 -0.01083
0.64600 -0.05865
0.64800 -0.04328
0.65000 0.01142
0.65200 0.03778
0.65400 0.01098
0.65600 -0.01355
0.65800 -0.03753
0.66000 0.02992
0.66200 0.03197
0.66400 0.04761
0.66600 -0.02780
0.66800 -0.08266
0.67000 0.03916
0.67200 -0.07939
0.67400 -0.02185
0.67600 -0.10779
0.67800 -0.06742
0.68000 0.00515
0.68200 -0.13811
0.68400 0.07000
0.68600 0.09432
0.68800 0.00476
0.69000 0.03222
0.69200 0.03672
0.69400 -0.05269
0.69600 -0.03316
0.69800 -0.01506
0.70000 -0.04487
0.70200 -0.05621
0.70400 -0.03006
0.70600 0.01150
0.70800 -0.08159
0.71000 -0.03837
0.71200 0.01973
0.71400 -0.02624
0.71600 0.16770
0.71800 0.02760
0.72000 -0.02714
0.72200 -0.05694
0.72400 0.01554
0.72600 -0.18366
0.72800 -0.05999
0.73000 -0.00676
0.73200 0.03280
0.73400 -0.11033
0.73600 -0.09391
0.73800 -0.02647
0.74000 0.04408
0.74200 -0.02552
0.74400 -0.12002
0.74600 0.00928
0.74800 0.06316
0.75000 0.04618
0.75200 -0.08900
0.75400 0.01272
0.75600 0.07369
0.75800 0.03012
0.76000 -0.04488
0.76200 0.01266
0.76400 0.01822
0.76600 -0.09105
0.76800 -0.01039
0.77000 -0.05699
0.77200 0.06619
0.77400 -0.01617
0.77600 -0.01643
0.77800 0.05427
0.78000 -0.01809
0.78200 0.03476
0.78400 0.01686
0.78600 -0.00506
0.78800 0.00993
0.79000 0.01855
0.79200 -0.00156
0.79400 -0.11233
0.79600 0.03832
0.79800 -0.15677
0.80000 -0.02851
0.80200 -0.01532
0.80400 -0.07671
0.80600 -0.10174
0.80800 0.01160
0.81000 -0.00770
0.81200 -0.01822
0.81400 -0.01609
0.81600 0.03998
0.81800 -0.04022
0.82000 -0.00555
0.82200 -0.02664
0.82400 0.04572
0.82600 -0.01826
0.82800 0.08107
0.83000 -0.00652
0.83200 -0.03407
0.83400 0.11932
0.83600 0.39224
0.83800 0.84917
0.84000 1.26101
0.84200 1.49374
0.84400 0.92306
0.84600 0.42654
0.84800 0.01594
0.85000 -0.02754
0.85200 0.02299
0.85400 -0.02139
0.85600 0.03425
0.85800 0.03547
0.86000 0.03885
0.86200 0.03082
0.86400 -0.03323
0.86600 0.00838
0.86800 0.01175
0.87000 -0.04189
0.87200 0.02091
0.87400 -0.04686
0.87600 0.09983
0.87800 0.16387
0.88000 -0.05160
0.88200 0.02224
0.88400 -0.01600
0.88600 0.04228
0.88800 0.05718
0.89000 -0.00655
0.89200 -0.01245
0.89400 -0.11427
0.89600 0.07067
0.89800 -0.03079
0.90000 0.07050
0.90200 0.01531
0.90400 0.13081
0.90600 0.03598
0.90800 0.02441
0.91000 0.00362
0.91200 -0.07687
0.91400 0.02903
0.91600 0.00904
0.91800 0.09385
0.92000 0.02676
0.92200 -0.05539
0.92400 0.01150
0.92600 0.06065
0.92800 0.05453
0.93000 -0.06821
0.93200 -0.02501
0.93400 0.03182
0.93600 0.03562
0.93800 0.05873
0.94000 -0.06053
0.94200 0.02641
0.94400 -0.02515
0.94600 -0.14187
0.94800 0.15082
0.95000 -0.04120
0.95200 0.07221
0.95400 0.01899
0.95600 0.05101
0.95800 -0.05950
0.96000 -0.02247
0.96200 -0.03717
0.96400 0.05661
0.96600 -0.00593
0.96800 0.02384
0.97000 -0.06231
0.97200 0.03487
0.97400 -0.04594
0.97600 -0.00811
0.97800 0.05802
0.98000 0.05305
0.98200 0.00997
0.98400 0.01327
0.98600 0.05646
0.98800 0.01571
0.99000 -0.03383
0.99200 -0.04242
0.99400 -0.00993
0.99600 0.07036
0.99800 0.03740
1.00000 -0.07273
1.00200 -0.08457
1.00400 -0.12484
1.00600 0.03986
1.00800 0.00493
1.01000 -0.09783
1.01200 -0.00462
1.01400 -0.08371
1.01600 -0.00846
1.01800 0.01460
1.02000 0.02313
1.02200 0.04538
1.02400 0.01026
1.02600 -0.07356
1.02800 0.00574
1.03000 0.10189
1.03200 0.06211
1.03400 -0.05977
1.03600 0.07449
1.03800 -0.01530
1.04000 -0.02708
1.04200 -0.01564
1.04400 0.07255
1.04600 -0.03280
1.04800 0.03667
1.05000 -0.02899
1.05200 0.01502
1.05400 -0.00080
1.05600 0.02938
1.05800 0.11008
1.06000 0.00785
1.06200 0.03098
1.06400 -0.09065
1.06600 -0.03864
1.06800 0.03879
1.07000 -0.02826
1.07200 -0.19261
1.07400 0.03807
1.07600 -0.03028
1.07800 -0.11117
1.08000 0.11340
1.08200 -0.04394
1.08400 0.12082
1.08600 0.00164
1.08800 -0.00666
1.09000 0.07620
1.09200 -0.09124
1.09400 -0.08342
1.09600 0.02693
1.09800 0.03002
1.10000 0.08626
1.10200 -0.01967
1.10400 -0.03011
1.10600 -0.07835
1.10800 -0.06412
1.11000 0.02849
1.11200 -0.06002
1.11400 -0.00711
1.11600 0.04086
1.11800 -0.00741
1.12000 -0.04249
1.12200 0.02775
1.12400 0.00407
1.12600 0.00312
1.12800 -0.12207
1.13000 0.00596
1.13200 -0.02575
1.13400 0.00518
1.13600 -0.04238
1.13800 -0.07028
1.14000 0.01180
1.14200 0.01359
1.14400 0.05252
1.14600 -0.03458
1.14800 0.02173
1.15000 -0.03855
1.15200 0.00942
1.15400 0.01307
1.15600 0.00562
1.15800 -0.05615
1.16000 -0.06268
1.16200 -0.05297
1.16400 0.07811
1.16600 -0.00361
1.16800 -0.02133
1.17000 0.03016
1.17200 -0.06046
1.17400 -0.04108
1.17600 0.00737
1.17800 0.00394
1.18000 -0.09594
1.18200 -0.11728
1.18400 0.13347
1.18600 0.00760
1.18800 0.03664
1.19000 0.06737
1.19200 0.10809
1.19400 0.07074
1.19600 0.01160
1.19800 0.03525
1.20000 -0.02349
1.20200 0.13950
1.20400 -0.03460
1.20600 0.03919
1.20800 -0.13817
1.21000 0.07449
1.21200 0.04845
1.21400 0.03341
1.21600 -0.00548
1.21800 -0.05373
1.22000 0.04415
1.22200 0.10350
1.22400 0.05210
1.22600 0.10220
1.22800 -0.02591
1.23000 -0.07766
1.23200 -0.05387
1.23400 0.03148
1.23600 -0.04483
1.23800 -0.08651
1.24000 -0.02305
1.24200 -0.01925
1.24400 -0.03038
1.24600 -0.03258
1.24800 -0.01619
1.25000 -0.00535
1.25200 -0.01252
1.25400 0.00673
1.25600 0.11571
1.25800 -0.02922
1.26000 -0.02326
1.26200 -0.05602
1.26400 -0.01393
1.26600 0.02643
1.26800 0.02587
1.27000 0.05343
1.27200 0.06857
1.27400 0.06783
1.27600 -0.03004
1.27800 0.07144
1.28000 0.11438
1.28200 0.05650
1.28400 0.14535
1.28600 0.00311
1.28800 0.06455
1.29000 0.01135
1.29200 0.01962
1.29400 0.02705
1.29600 0.00403
1.29800 0.04316
1.30000 -0.03571
1.30200 -0.05464
1.30400 0.03137
1.30600 0.00973
1.30800 -0.08081
1.31000 0.05855
1.31200 -0.03318
1.31400 -0.04103
1.31600 0.09274
1.31800 0.04169
1.32000 -0.00824
1.32200 -0.04362
1.32400 -0.09950
1.32600 -0.03412
1.32800 0.03583
1.33000 0.03631
1.33200 -0.02571
1.33400 0.01420
1.33600 -0.04787
1.33800 0.00360
1.34000 0.04253
1.34200 -0.03565
1.34400 -0.10147
1.34600 0.05235
1.34800 0.05508
1.35000 0.06261
1.35200 0.02721
1.35400 -0.03399
1.35600 -0.02533
1.35800 0.01660
1.36000 -0.03516
1.36200 0.05495
1.36400 -0.03569
1.36600 -0.01569
1.36800 0.11916
1.37000 -0.01521
1.37200 0.01727
1.37400 0.13906
1.37600 -0.08676
1.37800 0.01116
1.38000 0.01314
1.38200 0.01606
1.38400 0.00341
1.38600 -0.02735
1.38800 0.03843
1.39000 -0.01576
1.39200 -0.08252
1.39400 0.04597
1.39600 0.24834
1.39800 0.66353
1.40000 1.30421
1.40200 1.47032
1.40400 1.09392
1.40600 0.53553
1.40800 0.18541
1.41000 -0.05666
1.41200 0.04678
1.41400 0.03830
1.41600 0.01854
1.41800 0.04081
1.42000 0.03573
1.42200 -0.01727
1.42400 0.04796
1.42600 0.00120
1.42800 0.02681
1.43000 -0.02971
1.43200 -0.01875
1.43400 -0.04680
1.43600 0.02770
1.43800 0.00987
1.44000 -0.00125
1.44200 -0.06221
1.44400 -0.05906
1.44600 0.08208
1.44800 0.02564
1.45000 0.10823
1.45200 -0.12130
1.45400 -0.06985
1.45600 -0.00478
1.45800 -0.07737
1.46000 -0.04706
1.46200 0.06333
1.46400 -0.00522
1.46600 0.07857
1.46800 -0.01391
1.47000 -0.04941
1.47200 -0.07553
1.47400 -0.07151
1.47600 -0.04073
1.47800 0.08304
1.48000 -0.00094
1.48200 -0.02101
1.48400 0.07268
1.48600 -0.00440
1.48800 -0.01262
1.49000 -0.10262
1.49200 -0.02963
1.49400 -0.00346
1.49600 -0.10036
1.49800 -0.08249
1.50000 0.04283
1.50200 0.01031
1.50400 0.02725
1.50600 -0.00625
1.50800 0.06008
1.51000 -0.00802
1.51200 -0.04872
1.51400 0.07775
1.51600 0.06390
1.51800 -0.02092
1.52000 -0.07614
1.52200 0.02280
1.52400 0.13077
1.52600 -0.01597
1.52800 0.05243
1.53000 0.01409
1.53200 -0.01168
1.53400 -0.03966
1.53600 0.09032
1.53800 0.08420
1.54000 0.03087
1.54200 -0.02849
1.54400 -0.01658
1.54600 -0.01226
1.54800 0.05631
1.55000 0.04137
1.55200 -0.05081
1.55400 0.04642
1.55600 -0.00251
1.55800 -0.02766
1.56000 -0.07177
1.56200 -0.10934
1.56400 0.09705
1.56600 -0.03246
1.56800 -0.08178
1.57000 -0.02353
1.57200 0.00738
1.57400 -0.06847
1.57600 -0.01637
1.57800 0.05314
1.58000 0.01706
1.58200 -0.02656
1.58400 -0.04062
1.58600 0.02404
1.58800 -0.03370
1.59000 -0.01868
1.59200 0.00660
1.59400 -0.03911
1.59600 -0.09515
1.59800 0.05352
1.60000 0.01661
1.60200 -0.04449
1.60400 -0.05394
1.60600 -0.00278
1.60800 0.05133
1.61000 0.01099
1.61200 0.10519
1.61400 -0.05065
1.61600 -0.07539
1.61800 0.09115
1.62000 -0.01903
1.62200 0.07636
1.62400 -0.03578
1.62600 -0.05199
1.62800 -0.00436
1.63000 0.02851
1.63200 -0.09966
1.63400 -0.04085
1.63600 0.07452
1.63800 -0.02074
1.64000 0.01898
1.64200 0.02208
1.64400 -0.01558
1.64600 0.00583
1.64800 0.01744
1.65000 0.11369
1.65200 -0.04571
1.65400 -0.10939
1.65600 0.02265
1.65800 0.20537
1.66000 -0.03868
1.66200 0.00394
1.66400 0.01102
1.66600 -0.07335
1.66800 -0.00428
1.67000 -0.00538
1.67200 -0.11190
1.67400 0.10621
1.67600 0.00035
1.67800 0.09428
1.68000 -0.09896
1.68200 -0.05698
1.68400 0.02596
1.68600 0.01675
1.68800 -0.03850
1.69000 0.05655
1.69200 -0.00886
1.69400 -0.04814
1.69600 0.02357
1.69800 0.08827
1.70000 0.00529
1.70200 -0.14668
1.70400 -0.02597
1.70600 -0.03374
1.70800 0.04786
1.71000 0.01612
1.71200 -0.06666
1.71400 0.10894
1.71600 0.05771
1.71800 -0.05756
1.72000 0.08776
1.72200 -0.01839
1.72400 0.02033
1.72600 -0.00422
1.72800 0.09967
1.73000 -0.06871
1.73200 -0.03487
1.73400 0.04420
1.73600 -0.00800
1.73800 0.03330
1.74000 0.03314
1.74200 0.00062
1.74400 -0.05259
1.74600 0.09733
1.74800 -0.00549
1.75000 0.01402
1.75200 0.05466
1.75400 0.16498
1.75600 -0.06865
1.75800 0.00611
1.76000 0.09611
1.76200 0.00129
1.76400 0.00703
1.76600 -0.01910
1.76800 -0.06013
1.77000 0.02755
1.77200 0.05453
1.77400 -0.08825
1.77600 -0.00394
1.77800 0.01222
1.78000 0.07376
1.78200 -0.04226
1.78400 0.01642
1.78600 0.04435
1.78800 -0.06588
1.79000 0.06887
1.79200 -0.04839
1.79400 0.00769
1.79600 0.10241
1.79800 -0.00084
1.80000 0.01821
1.80200 -0.00084
1.80400 -0.02798
1.80600 -0.01136
1.80800 -0.10767
1.81000 0.02460
1.81200 -0.00265
1.81400 0.00181
1.81600 -0.04059
1.81800 -0.03721
1.82000 0.10291
1.82200 -0.13775
1.82400 -0.02729
1.82600 -0.05154
1.82800 0.01022
1.83000 -0.08324
1.83200 0.04524
1.83400 -0.02169
1.83600 0.05547
1.83800 0.03876
1.84000 0.07710
1.84200 0.05538
1.84400 -0.03730
1.84600 -0.00290
1.84800 0.00871
1.85000 -0.05400
1.85200 -0.04932
1.85400 0.07612
1.85600 0.10627
1.85800 0.01841
1.86000 0.02705
1.86200 -0.02221
1.86400 -0.06754
1.86600 -0.04322
1.86800 0.03797
1.87000 -0.07689
1.87200 -0.01564
1.87400 -0.07028
1.87600 -0.01044
1.87800 0.02008
1.88000 0.00443
1.88200 -0.05078
1.88400 -0.00638
1.88600 -0.01191
1.88800 0.03042
1.89000 0.07210
1.89200 0.00556
1.89400 -0.06541
1.89600 0.01653
1.89800 -0.10724
1.90000 -0.03263
1.90200 -0.03120
1.90400 -0.04939
1.90600 0.05634
1.90800 -0.15147
1.91000 0.04594
1.91200 0.03663
1.91400 0.00909
1.91600 -0.00757
1.91800 0.06811
1.92000 -0.11752
1.92200 0.01002
1.92400 -0.00470
1.92600 -0.04982
1.92800 0.05972
1.93000 -0.05440
1.93200 -0.06260
1.93400 0.00619
1.93600 -0.02557
1.93800 -0.07018
1.94000 -0.02140
1.94200 -0.03272
1.94400 0.04473
1.94600 0.03768
1.94800 -0.13370
1.95000 0.04003
1.95200 0.05045
1.95400 0.08523
1.95600 0.12439
1.95800 0.49568
1.96000 0.98873
1.96200 1.54019
1.96400 1.30638
1.96600 0.81641
1.96800 0.23406
1.97000 0.03443
1.97200 0.01442
1.97400 0.02837
1.97600 0.10344
1.97800 -0.02394
1.98000 -0.02444
1.98200 -0.00698
1.98400 -0.02450
1.98600 0.02833
1.98800 0.03919
1.99000 -0.03714
1.99200 0.00495
1.99400 0.03358
1.99600 0.02592
1.99800 0.00600
2.00000 -0.00038
2.00200 0.03510
2.00400 0.03147
2.00600 -0.10213
2.00800 0.06911
2.01000 -0.00551
2.01200 0.00003
2.01400 -0.07899
2.01600 0.01994
2.01800 0.04683
2.02000 -0.00254
2.02200 0.12974
2.02400 -0.05146
2.02600 -0.04116
2.02800 -0.06337
2.03000 -0.04019
2.03200 0.04922
2.03400 -0.06423
2.03600 -0.08105
2.03800 -0.13259
2.04000 0.01679
2.04200 -0.02149
2.04400 0.07095
2.04600 0.05337
2.04800 -0.00109
2.05000 -0.08019
2.05200 -0.03370
2.05400 -0.00512
2.05600 -0.01151
2.05800 -0.06659
2.06000 -0.12930
2.06200 -0.01743
2.06400 -0.03820
2.06600 0.02966
2.06800 -0.06000
2.07000 0.09728
2.07200 0.11819
2.07400 -0.08374
2.07600 0.03601
2.07800 0.04464
2.08000 -0.00504
2.08200 -0.06408
2.08400 -0.03032
2.08600 -0.01503
2.08800 0.03076
2.09000 -0.05167
2.09200 -0.03729
2.09400 0.03880
2.09600 0.02830
2.09800 0.15601
2.10000 -0.00994
2.10200 0.05958
2.10400 -0.07837
2.10600 0.09136
2.10800 -0.01482
2.11000 0.05574
2.11200 0.10748
2.11400 -0.07862
2.11600 -0.04610
2.11800 0.09321
2.12000 0.09485
2.12200 0.11646
2.12400 -0.00030
2.12600 0.01967
2.12800 -0.03167
2.13000 0.01276
2.13200 -0.00155
2.13400 0.01207
2.13600 -0.03546
2.13800 0.10083
2.14000 0.01609
2.14200 0.08413
2.14400 0.01859
2.14600 0.00854
2.14800 0.05451
2.15000 0.02369
2.15200 -0.04768
2.15400 -0.06731
2.15600 0.00133
2.15800 0.02177
2.16000 -0.10227
2.16200 0.00215
2.16400 -0.01362
2.16600 -0.10400
2.16800 -0.01790
2.17000 0.01254
2.17200 -0.05219
2.17400 0.03152
2.17600 -0.07390
2.17800 -0.13054
2.18000 -0.08596
2.18200 0.06841
2.18400 0.03378
2.18600 0.10693
2.18800 -0.03819
2.19000 -0.13235
2.19200 0.03469
2.19400 -0.03959
2.19600 0.09814
2.19800 -0.01567
2.20000 0.07964
2.20200 -0.12803
2.20400 0.11101
2.20600 -0.00757
2.20800 -0.02391
2.21000 0.06346
2.21200 0.06151
2.21400 -0.00533
2.21600 0.11096
2.21800 -0.05061
2.22000 0.02913
2.22200 -0.03241
2.22400 -0.03725
2.22600 0.01852
2.22800 0.02439
2.23000 0.03438
2.23200 0.02836
2.23400 -0.08599
2.23600 -0.03346
2.23800 0.08366
2.24000 -0.09418
2.24200 0.02454
2.24400 -0.03634
2.24600 0.02037
2.24800 -0.00380
2.25000 -0.08879
2.25200 0.00193
2.25400 -0.04502
2.25600 0.08564
2.25800 0.01332
2.26000 0.07482
2.26200 -0.01999
2.26400 0.05164
2.26600 0.05037
2.26800 0.08954
2.27000 0.06537
2.27200 0.04722
2.27400 -0.00665
2.27600 0.07551
2.27800 -0.04411
2.28000 0.00706
2.28200 0.03984
2.28400 0.04480
2.28600 0.05835
2.28800 0.05418
2.29000 -0.03905
2.29200 0.05156
2.29400 0.01818
2.29600 0.00823
2.29800 0.00307
2.30000 0.01913
2.30200 -0.05187
2.30400 0.11823
2.30600 0.00480
2.30800 0.02751
2.31000 0.06081
2.31200 0.03650
2.31400 0.02857
2.31600 -0.01655
2.31800 0.02064
2.32000 0.00452
2.32200 0.01642
2.32400 0.08630
2.32600 -0.07848
2.32800 0.01706
2.33000 0.03069
2.33200 -0.07165
2.33400 0.01705
2.33600 -0.16513
2.33800 -0.00580
2.34000 0.05520
2.34200 0.04128
2.34400 0.05187
2.34600 -0.02921
2.34800 0.02301
2.35000 0.04384
2.35200 -0.04136
2.35400 -0.05844
2.35600 0.10363
2.35800 -0.14886
2.36000 -0.04551
2.36200 0.02883
2.36400 -0.03837
2.36600 -0.13523
2.36800 -0.03104
2.37000 -0.05907
2.37200 -0.00735
2.37400 0.05361
2.37600 0.03852
2.37800 0.03005
2.38000 0.06103
2.38200 0.01906
2.38400 0.03962
2.38600 0.04871
2.38800 0.04823
2.39000 0.02340
2.39200 0.14666
2.39400 -0.03843
2.39600 -0.07322
2.39800 0.13879
2.40000 -0.03275
2.40200 -0.03847
2.40400 -0.01707
2.40600 0.04268
2.40800 -0.08599
2.41000 -0.01354
2.41200 -0.06658
2.41400 -0.03421
2.41600 0.04836
2.41800 -0.05738
2.42000 -0.04367
2.42200 -0.02512
2.42400 0.04292
2.42600 0.00965
2.42800 0.02314
2.43000 -0.03450
2.43200 -0.02578
2.43400 0.07931
2.43600 0.00964
2.43800 -0.02281
2.44000 -0.06538
2.44200 -0.01478
2.44400 -0.00125
2.44600 -0.02310
2.44800 0.04279
2.45000 0.00125
2.45200 -0.08138
2.45400 -0.00057
2.45600 -0.05714
2.45800 0.05212
2.46000 0.03810
2.46200 0.10623
2.46400 -0.05137
2.46600 0.08119
2.46800 0.00287
2.47000 0.05229
2.47200 -0.06586
2.47400 0.01974
2.47600 -0.10769
2.47800 0.01144
2.48000 -0.01461
2.48200 0.02006
2.48400 -0.05422
2.48600 -0.02976
2.48800 0.04152
2.49000 -0.18163
2.49200 0.04841
2.49400 0.08936
2.49600 -0.05785
2.49800 0.01652
2.50000 0.07476
2.50200 -0.03445
2.50400 0.00082
2.50600 0.06197
2.50800 -0.02962
2.51000 0.05292
2.51200 -0.12528
2.51400 -0.03389
2.51600 -0.04640
2.51800 0.31704
2.52000 0.87610
2.52200 1.41165
2.52400 1.45569
2.52600 1.07582
2.52800 0.48790
2.53000 0.30140
2.53200 0.04289
2.53400 0.02035
2.53600 0.10020
2.53800 -0.01823
2.54000 -0.07480
2.54200 -0.04661
2.54400 -0.01957
2.54600 -0.07171
2.54800 0.03469
2.55000 -0.03390
2.55200 0.05652
2.55400 0.03592
2.55600 0.00518
2.55800 -0.01339
2.56000 -0.03232
2.56200 -0.02327
2.56400 0.00174
2.56600 0.00198
2.56800 0.06983
2.57000 -0.01536
2.57200 -0.07606
2.57400 0.01501
2.57600 0.04212
2.57800 -0.13075
2.58000 0.02627
2.58200 -0.00583
2.58400 0.01701
2.58600 0.22015
2.58800 -0.01890
2.59000 0.01019
2.59200 -0.10569
2.59400 0.03695
2.59600 0.04069
2.59800 0.02476
2.60000 0.08778
2.60200 0.05933
2.60400 0.13261
2.60600 0.04806
2.60800 0.04195
2.61000 0.00786
2.61200 -0.03007
2.61400 0.00030
2.61600 -0.00986
2.61800 -0.01477
2.62000 0.04403
2.62200 -0.03451
2.62400 -0.10741
2.62600 -0.03375
2.62800 -0.00661
2.63000 -0.02935
2.63200 -0.00667
2.63400 0.01713
2.63600 0.19004
2.63800 0.09374
2.64000 0.03714
2.64200 -0.03666
2.64400 -0.01385
2.64600 -0.03066
2.64800 -0.10408
2.65000 -0.02062
2.65200 -0.06796
2.65400 0.04650
2.65600 0.01676
2.65800 -0.06330
2.66000 -0.00335
2.66200 0.06061
2.66400 0.08656
2.66600 0.14258
2.66800 0.10071
2.67000 0.07334
2.67200 0.08005
2.67400 0.03518
2.67600 0.03608
2.67800 0.02209
2.68000 0.05748
2.68200 -0.09690
2.68400 -0.06218
2.68600 0.13262
2.68800 0.05183
2.69000 -0.00341
2.69200 -0.03756
2.69400 -0.00996
2.69600 0.03021
2.69800 0.01345
2.70000 0.01023
2.70200 0.13265
2.70400 -0.00761
2.70600 -0.00876
2.70800 0.11093
2.71000 -0.04552
2.71200 0.05786
2.71400 0.06423
2.71600 0.02752
2.71800 0.10130
2.72000 0.04893
2.72200 -0.02697
2.72400 0.04239
2.72600 0.06520
2.72800 -0.04952
2.73000 0.12104
2.73200 -0.02698
2.73400 -0.02768
2.73600 -0.01314
2.73800 -0.07433
2.74000 0.03738
2.74200 -0.04154
2.74400 0.07119
2.74600 -0.10690
2.74800 -0.00579
2.75000 -0.10999
2.75200 -0.03474
2.75400 0.07234
2.75600 0.04518
2.75800 0.03716
2.76000 -0.03704
2.76200 0.08578
2.76400 -0.00291
2.76600 0.03107
2.76800 0.10459
2.77000 -0.03262
2.77200 0.02867
2.77400 0.10974
2.77600 -0.04051
2.77800 -0.01883
2.78000 0.02634
2.78200 0.07704
2.78400 0.06577
2.78600 -0.03335
2.78800 -0.11361
2.79000 -0.01048
2.79200 -0.03781
2.79400 -0.04632
2.79600 0.01077
2.79800 -0.05050
2.80000 0.03625
2.80200 0.03374
2.80400 0.10645
2.80600 0.04005
2.80800 -0.03763
2.81000 -0.02358
2.81200 -0.04699
2.81400 -0.13646
2.81600 0.02201
2.81800 -0.12619
2.82000 -0.01857
2.82200 -0.02284
2.82400 -0.07051
2.82600 0.04659
2.82800 0.06213
2.83000 0.12504
2.83200 0.07185
2.83400 -0.09663
2.83600 -0.08312
2.83800 -0.01581
2.84000 -0.07358
2.84200 -0.04143
2.84400 -0.06253
2.84600 -0.05416
2.84800 0.01273
2.85000 -0.04424
2.85200 0.02340
2.85400 -0.01769
2.85600 -0.10974
2.85800 -0.00004
2.86000 -0.13837
2.86200 0.13547
2.86400 0.02103
2.86600 -0.00576
2.86800 0.05763
2.87000 0.05940
2.87200 -0.08082
2.87400 -0.00877
2.87600 0.00310
2.87800 0.01007
2.88000 0.07435
2.88200 -0.13662
2.88400 0.05370
2.88600 -0.06012
2.88800 0.00585
2.89000 0.02723
2.89200 0.08643
2.89400 -0.01773
2.89600 -0.00398
2.89800 0.04847
2.90000 0.02735
2.90200 0.07628
2.90400 -0.00986
2.90600 0.04467
2.90800 -0.07690
2.91000 0.01676
2.91200 0.00527
2.91400 -0.03776
2.91600 -0.09359
2.91800 0.01210
2.92000 0.08725
2.92200 0.02601
2.92400 0.07730
2.92600 -0.02219
2.92800 0.02416
2.93000 -0.05524
2.93200 -0.08281
2.93400 -0.07037
2.93600 -0.02574
2.93800 0.10206
2.94000 0.02741
2.94200 0.03333
2.94400 0.04273
2.94600 0.06896
2.94800 -0.02434
2.95000 -0.03261
2.95200 0.03799
2.95400 -0.01144
2.95600 0.03323
2.95800 -0.00495
2.96000 0.04672
2.96200 -0.08344
2.96400 0.05398
2.96600 -0.08161
2.96800 0.07889
2.97000 0.04876
2.97200 -0.02162
2.97400 -0.08806
2.97600 0.01389
2.97800 -0.07652
2.98000 -0.00321
2.98200 0.06331
2.98400 0.00475
2.98600 -0.06827
2.98800 -0.01331
2.99000 -0.07862
2.99200 -0.12361
2.99400 -0.06442
2.99600 -0.02035
2.99800 0.05199
3.00000 -0.12024
3.00200 -0.08444
3.00400 0.02615
3.00600 0.07069
3.00800 -0.10580
3.01000 -0.01968
3.01200 -0.05573
3.01400 -0.05850
3.01600 -0.14885
3.01800 0.03114
3.02000 -0.17864
3.02200 -0.03145
3.02400 0.05034
3.02600 -0.03812
3.02800 -0.07285
3.03000 -0.00365
3.03200 -0.00139
3.03400 0.07029
3.03600 -0.06944
3.03800 -0.03834
3.04000 0.02721
3.04200 0.02815
3.04400 0.00112
3.04600 0.02148
3.04800 -0.03721
3.05000 0.13837
3.05200 0.05923
3.05400 -0.04942
3.05600 -0.01120
3.05800 0.06705
3.06000 -0.04650
3.06200 -0.07017
3.06400 0.08462
3.06600 0.02355
3.06800 0.10448
3.07000 -0.04787
3.07200 0.05297
3.07400 -0.04648
3.07600 0.04504
3.07800 0.17481
3.08000 0.57835
3.08200 1.16104
3.08400 1.57891
3.08600 1.27675
3.08800 0.64982
3.09000 0.19079
3.09200 0.10735
3.09400 -0.04086
3.09600 0.03999
3.09800 -0.02055
3.10000 0.05902
3.10200 -0.01547
3.10400 -0.02450
3.10600 0.00628
3.10800 -0.00240
3.11000 -0.11777
3.11200 0.08768
3.11400 0.02520
3.11600 -0.07490
3.11800 -0.00977
3.12000 0.07334
3.12200 0.08392
3.12400 0.04440
3.12600 0.10800
3.12800 -0.07511
3.13000 -0.02401
3.13200 0.08953
3.13400 -0.05088
3.13600 0.01717
3.13800 0.06246
3.14000 -0.02619
3.14200 -0.07845
3.14400 -0.01368
3.14600 -0.11204
3.14800 -0.03451
3.15000 0.02280
3.15200 0.00278
3.15400 0.06393
3.15600 0.04169
3.15800 -0.06662
3.16000 -0.04815
3.16200 -0.07992
3.16400 0.01010
3.16600 -0.03061
3.16800 0.06580
3.17000 -0.08450
3.17200 0.04044
3.17400 0.08432
3.17600 -0.05399
3.17800 -0.04323
3.18000 0.02898
3.18200 0.05643
3.18400 0.13859
3.18600 0.03302
3.18800 0.04560
3.19000 0.10934
3.19200 -0.02920
3.19400 -0.06707
3.19600 -0.02007
3.19800 -0.01092
3.20000 0.09436
3.20200 -0.01779
3.20400 -0.00103
3.20600 0.03716
3.20800 -0.02147
3.21000 0.01981
3.21200 -0.01471
3.21400 -0.07508
3.21600 -0.00563
3.21800 0.01882
3.22000 0.04170
3.22200 0.13556
3.22400 -0.03513
3.22600 0.05295
3.22800 -0.00264
3.23000 0.12509
3.23200 -0.03527
3.23400 0.02037
3.23600 0.04669
3.23800 -0.02002
3.24000 -0.10079
3.24200 -0.05362
3.24400 -0.05720
3.24600 0.05161
3.24800 -0.00610
3.25000 -0.02879
3.25200 -0.07628
3.25400 0.10218
3.25600 -0.07047
3.25800 0.02480
3.26000 0.01136
3.26200 -0.05032
3.26400 0.07633
3.26600 0.02786
3.26800 0.07554
3.27000 -0.06483
3.27200 -0.02785
3.27400 -0.03273
3.27600 -0.01713
3.27800 -0.03232
3.28000 0.01295
3.28200 0.02573
3.28400 0.08087
3.28600 0.10314
3.28800 -0.05738
3.29000 -0.02539
3.29200 0.03847
3.29400 -0.09597
3.29600 -0.08990
3.29800 0.08767
3.30000 0.01609
3.30200 -0.01076
3.30400 0.09476
3.30600 -0.04941
3.30800 0.03042
3.31000 0.02506
3.31200 -0.02128
3.31400 -0.02341
3.31600 0.05907
3.31800 0.01953
3.32000 0.03660
3.32200 -0.01086
3.32400 -0.03782
3.32600 -0.04531
3.32800 0.04289
3.33000 0.06139
3.33200 -0.07710
3.33400 0.02038
3.33600 0.10238
3.33800 0.03892
3.34000 0.02451
3.34200 0.07748
3.34400 0.06132
3.34600 0.04145
3.34800 0.07199
3.35000 0.02993
3.35200 0.03093
3.35400 -0.01721
3.35600 0.03493
3.35800 -0.03629
3.36000 0.00497
3.36200 -0.05401
3.36400 0.00431
3.36600 0.08676
3.36800 0.10654
3.37000 -0.04680
3.37200 0.00790
3.37400 0.05105
3.37600 -0.00284
3.37800 -0.00868
3.38000 0.00473
3.38200 -0.01238
3.38400 0.01023
3.38600 -0.03026
3.38800 -0.04730
3.39000 -0.06341
3.39200 0.01945
3.39400 -0.02400
3.39600 0.04096
3.39800 0.01799
3.40000 0.06264
3.40200 -0.03821
3.40400 0.04066
3.40600 -0.10535
3.40800 0.07284
3.41000 0.03377
3.41200 -0.12239
3.41400 0.04686
3.41600 0.03291
3.41800 0.11374
3.42000 0.05133
3.42200 0.04983
3.42400 0.00091
3.42600 -0.06730
3.42800 -0.03302
3.43000 0.03153
3.43200 0.01169
3.43400 -0.01723
3.43600 -0.08191
3.43800 -0.07259
3.44000 -0.01127
3.44200 -0.07169
3.44400 0.00543
3.44600 -0.00989
3.44800 0.00863
3.45000 0.04130
3.45200 0.01558
3.45400 -0.02718
3.45600 -0.06212
3.45800 0.06825
3.46000 -0.04329
3.46200 -0.02790
3.46400 0.04256
3.46600 -0.07013
3.46800 -0.03046
3.47000 -0.05241
3.47200 0.00428
3.47400 -0.02852
3.47600 0.12371
3.47800 0.05882
3.48000 0.05573
3.48200 0.02442
3.48400 0.07384
3.48600 -0.02228
3.48800 -0.06245
3.49000 -0.02114
3.49200 0.05155
3.49400 0.09814
3.49600 0.03375
3.49800 -0.02183
3.50000 0.06299
3.50200 -0.03691
3.50400 -0.10157
3.50600 -0.00500
3.50800 -0.03963
3.51000 0.03021
3.51200 0.10343
3.51400 0.06557
3.51600 -0.03259
3.51800 0.06511
3.52000 -0.00833
3.52200 -0.02835
3.52400 0.03156
3.52600 0.02187
3.52800 0.09340
3.53000 0.03978
3.53200 -0.06357
3.53400 0.05172
3.53600 -0.09796
3.53800 -0.01416
3.54000 -0.07858
3.54200 -0.00815
3.54400 -0.03531
3.54600 -0.03926
3.54800 -0.05840
3.55000 -0.03693
3.55200 0.07520
3.55400 0.02052
3.55600 0.02641
3.55800 0.01134
3.56000 -0.02196
3.56200 -0.04026
3.56400 0.05050
3.56600 0.02237
3.56800 0.02152
3.57000 0.01382
3.57200 0.04722
3.57400 0.00561
3.57600 0.05522
3.57800 -0.03439
3.58000 -0.03924
3.58200 0.06524
3.58400 0.03209
3.58600 0.14656
3.58800 -0.00093
3.59000 0.02706
3.59200 0.00643
3.59400 -0.09291
3.59600 -0.04946
3.59800 -0.11376
3.60000 0.05699
3.60200 -0.02879
3.60400 -0.03429
3.60600 -0.00855
3.60800 -0.04054
3.61000 -0.05697
3.61200 0.03931
3.61400 -0.01119
3.61600 -0.03320
3.61800 -0.03062
3.62000 0.12715
3.62200 -0.04271
3.62400 -0.00288
3.62600 -0.06423
3.62800 0.13087
3.63000 0.01640
3.63200 0.11168
3.63400 0.00659
3.63600 -0.04982
3.63800 0.08829
3.64000 0.27750
3.64200 0.84406
3.64400 1.47394
3.64600 1.50832
3.64800 0.93113
3.65000 0.31464
3.65200 0.11073
3.65400 0.00739
3.65600 -0.07606
3.65800 -0.02372
3.66000 0.05517
3.66200 -0.04105
3.66400 -0.01672
3.66600 0.03455
3.66800 0.06508
3.67000 0.08476
3.67200 -0.02160
3.67400 -0.06808
3.67600 -0.02918
3.67800 0.03607
3.68000 -0.03247
3.68200 0.04285
3.68400 -0.01101
3.68600 0.08936
3.68800 0.13084
3.69000 -0.04520
3.69200 -0.02161
3.69400 0.07946
3.69600 0.08162
3.69800 -0.03080
3.70000 0.03531
3.70200 -0.00549
3.70400 0.00705
3.70600 0.03261
3.70800 -0.07745
3.71000 0.01828
3.71200 -0.07508
3.71400 -0.05149
3.71600 0.04573
3.71800 -0.05974
3.72000 -0.01216
3.72200 0.08055
3.72400 -0.05472
3.72600 -0.01027
3.72800 0.04303
3.73000 0.00106
3.73200 0.05333
3.73400 -0.06873
3.73600 -0.00369
3.73800 0.04118
3.74000 -0.09868
3.74200 -0.05647
3.74400 -0.02541
3.74600 0.03995
3.74800 0.01911
3.75000 -0.10051
3.75200 0.06363
3.75400 0.03401
3.75600 0.01258
3.75800 0.02360
3.76000 0.06388
3.76200 0.03169
3.76400 -0.05247
3.76600 0.01306
3.76800 -0.03033
3.77000 -0.06166
3.77200 -0.05485
3.77400 -0.14019
3.77600 0.09176
3.77800 0.00637
3.78000 -0.01862
3.78200 0.04419
3.78400 0.02079
3.78600 -0.00477
3.78800 0.01015
3.79000 -0.02098
3.79200 0.06545
3.79400 0.00686
3.79600 -0.02598
3.79800 0.01730
3.80000 -0.01367
3.80200 0.03667
3.80400 0.02760
3.80600 -0.16493
3.80800 -0.00816
3.81000 -0.06287
3.81200 0.06979
3.81400 -0.00883
3.81600 0.00314
3.81800 -0.06512
3.82000 0.06213
3.82200 0.02862
3.82400 -0.03449
3.82600 0.08678
3.82800 -0.06685
3.83000 -0.09216
3.83200 -0.04186
3.83400 0.00211
3.83600 0.09453
3.83800 -0.03901
3.84000 0.02897
3.84200 -0.02885
3.84400 0.02210
3.84600 -0.07772
3.84800 -0.07207
3.85000 -0.02788
3.85200 0.01495
3.85400 0.03475
3.85600 -0.01008
3.85800 0.06042
3.86000 0.01203
3.86200 0.00411
3.86400 0.01975
3.86600 0.00409
3.86800 0.05484
3.87000 0.05399
3.87200 0.02943
3.87400 0.00029
3.87600 0.01099
3.87800 0.03564
3.88000 -0.02354
3.88200 -0.00244
3.88400 0.04789
3.88600 -0.06514
3.88800 0.02194
3.89000 -0.10008
3.89200 -0.05209
3.89400 -0.01219
3.89600 -0.03956
3.89800 0.03695
3.90000 0.09856
3.90200 0.01558
3.90400 0.02885
3.90600 0.12401
3.90800 0.04945
3.91000 -0.14337
3.91200 0.05218
3.91400 -0.03026
3.91600 0.06010
3.91800 -0.01918
3.92000 -0.02767
3.92200 -0.01527
3.92400 -0.01018
3.92600 0.07850
3.92800 -0.02113
3.93000 0.00889
3.93200 -0.08628
3.93400 -0.05940
3.93600 0.00397
3.93800 -0.07212
3.94000 -0.05963
3.94200 -0.04303
3.94400 -0.08409
3.94600 0.10242
3.94800 0.05787
3.95000 -0.03689
3.95200 -0.03733
3.95400 0.05585
3.95600 0.15292
3.95800 0.07271
3.96000 0.01027
3.96200 -0.03811
3.96400 -0.11483
3.96600 -0.06679
3.96800 -0.05142
3.97000 -0.05917
3.97200 -0.01764
3.97400 -0.03616
3.97600 0.07111
3.97800 -0.00437
3.98000 -0.05540
3.98200 0.04640
3.98400 0.03856
3.98600 0.00230
3.98800 -0.04422
3.99000 0.00001
3.99200 -0.04106
3.99400 0.11029
3.99600 0.03397
3.99800 0.00970
4.00000 0.00267
4.00200 0.02395
4.00400 0.14240
4.00600 0.05788
4.00800 -0.04802
4.01000 -0.01296
4.01200 0.02836
4.01400 -0.01616
4.01600 0.06764
4.01800 0.06692
4.02000 -0.01995
4.02200 0.09933
4.02400 0.03175
4.02600 0.06573
4.02800 -0.06298
4.03000 0.06690
4.03200 -0.00684
4.03400 -0.06365
4.03600 -0.05734
4.03800 0.00358
4.04000 0.05864
4.04200 -0.00284
4.04400 0.01023
4.04600 -0.02963
4.04800 -0.02098
4.05000 -0.06937
4.05200 -0.07119
4.05400 -0.05629
4.05600 -0.06454
4.05800 -0.01103
4.06000 0.01783
4.06200 0.03331
4.06400 0.12847
4.06600 -0.06040
4.06800 -0.04391
4.07000 -0.00944
4.07200 0.04999
4.07400 0.11771
4.07600 -0.08140
4.07800 0.03016
4.08000 -0.10556
4.08200 -0.06856
4.08400 -0.07560
4.08600 -0.03830
4.08800 0.02392
4.09000 -0.06993
4.09200 -0.05076
4.09400 -0.10922
4.09600 -0.01641
4.09800 0.08600
4.10000 -0.07376
4.10200 0.12928
4.10400 0.03396
4.10600 -0.01390
4.10800 0.00872
4.11000 -0.05679
4.11200 0.03254
4.11400 -0.07711
4.11600 -0.08339
4.11800 -0.06417
4.12000 0.01744
4.12200 -0.09953
4.12400 -0.03407
4.12600 -0.01293
4.12800 0.00045
4.13000 0.02482
4.13200 0.03971
4.13400 -0.06166
4.13600 -0.18527
4.13800 0.03454
4.14000 0.07471
4.14200 -0.03237
4.14400 0.06793
4.14600 -0.12148
4.14800 -0.00387
4.15000 0.02618
4.15200 0.09552
4.15400 0.03568
4.15600 0.02659
4.15800 -0.02553
4.16000 -0.00918
4.16200 0.06109
4.16400 -0.00084
4.16600 -0.11488
4.16800 0.11243
4.17000 -0.03306
4.17200 -0.11499
4.17400 -0.06733
4.17600 -0.02856
4.17800 -0.05442
4.18000 -0.08915
4.18200 0.00175
4.18400 -0.02756
4.18600 -0.06056
4.18800 0.03980
4.19000 0.04149
4.19200 -0.04694
4.19400 0.07329
4.19600 0.03239
4.19800 0.06348
4.20000 0.24935
4.20200 0.72862
4.20400 1.26517
4.20600 1.42057
4.20800 1.09577
4.21000 0.36228
4.21200 0.24850
4.21400 -0.07300
4.21600 0.01437
4.21800 -0.06854
4.22000 0.01961
4.22200 0.04778
4.22400 -0.07546
4.22600 -0.04790
4.22800 -0.01399
4.23000 0.00894
4.23200 0.07464
4.23400 -0.00683
4.23600 -0.02095
4.23800 0.00081
4.24000 -0.03926
4.24200 0.09528
4.24400 -0.01229
4.24600 0.01069
4.24800 0.06931
4.25000 0.00826
4.25200 0.01804
4.25400 0.04718
4.25600 0.03979
4.25800 -0.03755
4.26000 0.02533
4.26200 0.00313
4.26400 -0.01490
4.26600 0.00132
4.26800 0.03448
4.27000 -0.16553
4.27200 0.05466
4.27400 -0.06407
4.27600 0.06778
4.27800 0.02333
4.28000 -0.00422
4.28200 0.01629
4.28400 0.01231
4.28600 0.15122
4.28800 0.07102
4.29000 0.00059
4.29200 -0.07129
4.29400 0.09016
4.29600 -0.00339
4.29800 -0.04235
4.30000 -0.04795
4.30200 -0.02114
4.30400 0.04137
4.30600 0.00330
4.30800 -0.03132
4.31000 -0.03994
4.31200 0.01390
4.31400 0.03432
4.31600 0.02138
4.31800 -0.01317
4.32000 0.02378
4.32200 -0.12352
4.32400 0.00739
4.32600 0.12500
4.32800 0.02997
4.33000 0.05758
4.33200 -0.00619
4.33400 -0.05062
4.33600 0.11074
4.33800 -0.01073
4.34000 -0.02696
4.34200 0.17334
4.34400 0.10758
4.34600 0.17276
4.34800 0.06338
4.35000 0.04585
4.35200 -0.10498
4.35400 0.05168
4.35600 -0.06514
4.35800 -0.04247
4.36000 -0.08382
4.36200 -0.04095
4.36400 -0.06947
4.36600 0.03306
4.36800 0.09719
4.37000 -0.01928
4.37200 0.08681
4.37400 -0.02734
4.37600 0.02400
4.37800 0.07301
4.38000 -0.05652
4.38200 0.05877
4.38400 -0.08788
4.38600 -0.00699
4.38800 0.06673
4.39000 -0.09851
4.39200 -0.15815
4.39400 0.07057
4.39600 0.14203
4.39800 0.05753
4.40000 -0.06760
4.40200 -0.06613
4.40400 0.13114
4.40600 -0.06258
4.40800 -0.06068
4.41000 -0.01812
4.41200 0.06684
4.41400 -0.06834
4.41600 0.01364
4.41800 0.01358
4.42000 -0.00944
4.42200 -0.02776
4.42400 0.00255
4.42600 -0.06025
4.42800 -0.03467
4.43000 0.08263
4.43200 -0.07478
4.43400 -0.00921
4.43600 -0.00749
4.43800 -0.06881
4.44000 -0.04751
4.44200 -0.02323
4.44400 0.02229
4.44600 0.00139
4.44800 0.06435
4.45000 0.05224
4.45200 0.07914
4.45400 -0.03955
4.45600 -0.01622
4.45800 -0.02329
4.46000 -0.06730
4.46200 0.06962
4.46400 0.00581
4.46600 -0.04695
4.46800 0.04424
4.47000 -0.02829
4.47200 0.01624
4.47400 -0.00506
4.47600 0.01416
4.47800 -0.11636
4.48000 -0.09605
4.48200 0.08881
4.48400 0.01344
4.48600 -0.06520
4.48800 0.03619
4.49000 -0.09657
4.49200 0.04461
4.49400 -0.02305
4.49600 0.02439
4.49800 0.01129
4.50000 -0.07705
4.50200 0.04286
4.50400 -0.11350
4.50600 -0.05762
4.50800 0.11166
4.51000 0.04130
4.51200 -0.03344
4.51400 0.18396
4.51600 0.06170
4.51800 0.00343
4.52000 -0.12470
4.52200 0.00897
4.52400 -0.01383
4.52600 0.07028
4.52800 -0.00098
4.53000 -0.04554
4.53200 -0.03031
4.53400 0.01498
4.53600 -0.02705
4.53800 0.01498
4.54000 0.03367
4.54200 -0.18198
4.54400 0.03780
4.54600 -0.07190
4.54800 0.07058
4.55000 -0.01384
4.55200 0.01557
4.55400 -0.02073
4.55600 -0.05110
4.55800 0.09696
4.56000 -0.00236
4.56200 0.00263
4.56400 -0.03039
4.56600 -0.15964
4.56800 -0.02328
4.57000 0.09513
4.57200 -0.06777
4.57400 0.10813
4.57600 -0.08778
4.57800 -0.04030
4.58000 -0.05048
4.58200 0.08581
4.58400 -0.02957
4.58600 -0.04008
4.58800 -0.05595
4.59000 0.06376
4.59200 -0.14260
4.59400 0.04977
4.59600 0.03816
4.59800 0.03264
4.60000 0.03295
4.60200 -0.06323
4.60400 0.05256
4.60600 0.09981
4.60800 -0.03423
4.61000 0.02413
4.61200 -0.03818
4.61400 0.10580
4.61600 0.03788
4.61800 0.08718
4.62000 -0.02125
4.62200 -0.00110
4.62400 0.00690
4.62600 0.00572
4.62800 0.00646
4.63000 0.04512
4.63200 -0.04735
4.63400 -0.05125
4.63600 0.05768
4.63800 -0.00592
4.64000 0.07409
4.64200 -0.01339
4.64400 0.04375
4.64600 0.01096
4.64800 -0.04686
4.65000 0.00826
4.65200 0.06954
4.65400 -0.00875
4.65600 -0.00297
4.65800 -0.00462
4.66000 0.09699
4.66200 -0.02098
4.66400 0.01438
4.66600 -0.05131
4.66800 0.04365
4.67000 -0.06339
4.67200 -0.01611
4.67400 0.01478
4.67600 0.01380
4.67800 -0.08320
4.68000 -0.06995
4.68200 -0.05302
4.68400 0.14498
4.68600 0.06341
4.68800 0.00594
4.69000 -0.02694
4.69200 -0.05417
4.69400 -0.02244
4.69600 0.12514
4.69800 0.05288
4.70000 -0.07576
4.70200 -0.14042
4.70400 -0.06725
4.70600 0.02461
4.70800 0.00590
4.71000 0.01929
4.71200 0.00235
4.71400 0.03201
4.71600 0.07628
4.71800 -0.00918
4.72000 -0.08675
4.72200 0.07676
4.72400 0.01629
4.72600 0.06666
4.72800 0.05414
4.73000 0.11370
4.73200 0.01649
4.73400 -0.09089
4.73600 0.01864
4.73800 0.02976
4.74000 -0.00411
4.74200 0.10888
4.74400 -0.04673
4.74600 0.05980
4.74800 0.00112
4.75000 -0.00844
4.75200 0.00565
4.75400 0.01441
4.75600 -0.07962
4.75800 -0.00562
4.76000 0.01994
4.76200 0.54026
4.76400 1.08267
4.76600 1.55028
4.76800 1.33534
4.77000 0.70789
4.77200 0.12727
4.77400 -0.01409
4.77600 0.05182
4.77800 -0.04447
4.78000 -0.06835
4.78200 0.01734
4.78400 0.04112
4.78600 0.04296
4.78800 -0.04473
4.79000 0.04320
4.79200 0.06816
4.79400 -0.05394
4.79600 0.02941
4.79800 0.03542
4.80000 -0.01823
4.80200 0.00667
4.80400 0.02207
4.80600 -0.07683
4.80800 0.01717
4.81000 0.01797
4.81200 0.04565
4.81400 -0.00709
4.81600 0.04002
4.81800 0.00441
4.82000 -0.02843
4.82200 0.08797
4.82400 -0.14044
4.82600 0.15321
4.82800 0.02184
4.83000 -0.03402
4.83200 -0.07040
4.83400 -0.07049
4.83600 -0.06981
4.83800 0.05366
4.84000 -0.00349
4.84200 -0.07212
4.84400 -0.11342
4.84600 0.08714
4.84800 0.03020
4.85000 0.09772
4.85200 -0.10537
4.85400 0.00622
4.85600 -0.10121
4.85800 -0.01032
4.86000 0.04623
4.86200 0.11662
4.86400 0.13916
4.86600 0.04967
4.86800 0.08421
4.87000 -0.03226
4.87200 0.06932
4.87400 0.07695
4.87600 0.04305
4.87800 -0.02582
4.88000 -0.03395
4.88200 -0.01009
4.88400 -0.04435
4.88600 -0.08165
4.88800 -0.00137
4.89000 0.10427
4.89200 -0.00993
4.89400 -0.01995
4.89600 -0.06156
4.89800 0.01690
4.90000 0.04425
4.90200 0.05963
4.90400 0.06002
4.90600 0.06223
4.90800 0.13657
4.91000 0.05122
4.91200 0.02911
4.91400 0.04682
4.91600 0.05560
4.91800 -0.01873
4.92000 -0.12118
4.92200 0.05631
4.92400 -0.11912
4.92600 -0.02251
4.92800 -0.01805
4.93000 0.05020
4.93200 -0.04459
4.93400 -0.03506
4.93600 0.03693
4.93800 0.01304
4.94000 -0.02308
4.94200 0.15949
4.94400 0.01801
4.94600 0.06882
4.94800 -0.02916
4.95000 -0.10672
4.95200 0.05021
4.95400 0.02050
4.95600 -0.01630
4.95800 0.11578
4.96000 -0.06922
4.96200 -0.06728
4.96400 -0.02417
4.96600 0.03904
4.96800 0.03008
4.97000 -0.19301
4.97200 -0.11389
4.97400 0.01198
4.97600 0.04748
4.97800 0.01164
4.98000 0.04597
4.98200 -0.01390
4.98400 0.04464
4.98600 -0.05865
4.98800 0.04243
4.99000 -0.10093
4.99200 0.04043
4.99400 -0.02726
4.99600 -0.05015
4.99800 -0.00781
5.00000 -0.09785
5.00200 -0.07275
5.00400 -0.07176
5.00600 -0.07529
5.00800 -0.09899
5.01000 -0.02735
5.01200 0.04297
5.01400 0.03162
5.01600 0.08615
5.01800 -0.03539
5.02000 -0.03124
5.02200 -0.06207
5.02400 -0.17625
5.02600 0.03152
5.02800 -0.00705
5.03000 0.02536
5.03200 0.00957
5.03400 -0.02866
5.03600 -0.08056
5.03800 0.12898
5.04000 0.04019
5.04200 0.08403
5.04400 0.13504
5.04600 -0.00283
5.04800 0.02577
5.05000 0.05705
5.05200 -0.06506
5.05400 -0.09415
5.05600 -0.06028
5.05800 -0.04478
5.06000 -0.00161
5.06200 0.01325
5.06400 0.02553
5.06600 -0.03844
5.06800 -0.00111
5.07000 0.17753
5.07200 -0.03293
5.07400 -0.04808
5.07600 -0.02699
5.07800 0.00976
5.08000 0.00841
5.08200 -0.07437
5.08400 0.05110
5.08600 -0.01021
5.08800 0.00417
5.09000 -0.02158
5.09200 -0.07949
5.09400 -0.05545
5.09600 0.07118
5.09800 -0.04078
5.10000 -0.08095
5.10200 0.00358
5.10400 -0.04105
5.10600 0.04614
5.10800 0.17249
5.11000 -0.00183
5.11200 -0.02268
5.11400 -0.01729
5.11600 -0.02826
5.11800 -0.08406
5.12000 0.13607
5.12200 0.00718
5.12400 -0.04540
5.12600 -0.01596
5.12800 -0.12852
5.13000 0.02155
5.13200 0.05131
5.13400 -0.00109
5.13600 0.05889
5.13800 0.05085
5.14000 0.10179
5.14200 0.09634
5.14400 0.00844
5.14600 -0.08859
5.14800 0.00973
5.15000 0.09437
5.15200 0.14281
5.15400 0.02019
5.15600 -0.03694
5.15800 -0.04661
5.16000 -0.10269
5.16200 -0.06710
5.16400 0.02139
5.16600 -0.04524
5.16800 0.03018
5.17000 0.09333
5.17200 -0.00710
5.17400 -0.11195
5.17600 0.06648
5.17800 -0.09155
5.18000 0.00558
5.18200 0.06963
5.18400 0.09109
5.18600 -0.11166
5.18800 0.04505
5.19000 0.03957
5.19200 -0.05614
5.19400 -0.01693
5.19600 0.00316
5.19800 0.07298
5.20000 0.05866
5.20200 -0.04854
5.20400 -0.05745
5.20600 0.11453
5.20800 0.05327
5.21000 -0.01128
5.21200 -0.00193
5.21400 -0.05070
5.21600 0.02159
5.21800 -0.07580
5.22000 0.03624
5.22200 -0.03129
5.22400 0.06486
5.22600 -0.00316
5.22800 -0.05421
5.23000 -0.03292
5.23200 0.18822
5.23400 0.10519
5.23600 0.00902
5.23800 -0.00593
5.24000 0.11350
5.24200 0.03596
5.24400 -0.03155
5.24600 0.02041
5.24800 0.02600
5.25000 -0.02414
5.25200 0.06272
5.25400 -0.01688
5.25600 0.03377
5.25800 -0.00398
5.26000 0.07451
5.26200 -0.05034
5.26400 -0.08128
5.26600 -0.06448
5.26800 0.00470
5.27000 -0.04542
5.27200 0.02807
5.27400 -0.01392
5.27600 0.00985
5.27800 0.00982
5.28000 0.06184
5.28200 0.04941
5.28400 0.05747
5.28600 -0.05778
5.28800 0.06660
5.29000 0.04920
5.29200 0.10700
5.29400 -0.01374
5.29600 -0.06954
5.29800 0.01501
5.30000 -0.01522
5.30200 -0.02529
5.30400 0.14863
5.30600 0.00098
5.30800 -0.00010
5.31000 0.03634
5.31200 -0.06480
5.31400 0.06369
5.31600 -0.04293
5.31800 0.07111
5.32000 0.11570
5.32200 0.41676
5.32400 0.85208
5.32600 1.47517
5.32800 1.49739
5.33000 1.04642
5.33200 0.43272
5.33400 0.05139
5.33600 -0.00079
5.33800 0.02161
5.34000 -0.11593
5.34200 0.00270
5.34400 -0.04911
5.34600 -0.01983
5.34800 -0.13237
5.35000 0.07054
5.35200 0.09648
5.35400 0.00370
5.35600 0.04116
5.35800 -0.02089
5.36000 0.12193
5.36200 -0.00692
5.36400 0.03728
5.36600 0.00344
5.36800 -0.08006
5.37000 -0.14104
5.37200 0.04358
5.37400 0.06279
5.37600 0.08416
5.37800 -0.07636
5.38000 -0.04071
5.38200 -0.02720
5.38400 -0.00498
5.38600 0.03192
5.38800 0.05045
5.39000 0.05122
5.39200 -0.01580
5.39400 0.10490
5.39600 -0.03607
5.39800 0.23039
5.40000 -0.08519
5.40200 0.08709
5.40400 0.01281
5.40600 -0.07805
5.40800 0.01501
5.41000 -0.00817
5.41200 0.05075
5.41400 -0.08614
5.41600 0.08698
5.41800 -0.04819
5.42000 -0.05709
5.42200 -0.00900
5.42400 0.02102
5.42600 0.14621
5.42800 0.05170
5.43000 0.01197
5.43200 0.01413
5.43400 -0.03887
5.43600 -0.05864
5.43800 0.04668
5.44000 -0.00087
5.44200 -0.04017
5.44400 0.03412
5.44600 -0.07850
5.44800 0.10294
5.45000 -0.07576
5.45200 0.07991
5.45400 0.06910
5.45600 -0.03012
5.45800 -0.02321
5.46000 0.05145
5.46200 0.06770
5.46400 0.13048
5.46600 0.10836
5.46800 -0.01246
5.47000 -0.06593
5.47200 -0.07869
5.47400 0.03716
5.47600 0.03018
5.47800 0.01077
5.48000 -0.00910
5.48200 -0.07811
5.48400 -0.09083
5.48600 0.01598
5.48800 -0.08625
5.49000 0.12126
5.49200 -0.01377
5.49400 0.00703
5.49600 -0.04142
5.49800 0.01809
5.50000 0.12177
5.50200 -0.01919
5.50400 0.05509
5.50600 -0.04148
5.50800 0.07664
5.51000 -0.01953
5.51200 0.04255
5.51400 0.01361
5.51600 0.02171
5.51800 -0.04312
5.52000 0.07076
5.52200 0.00165
5.52400 -0.00089
5.52600 -0.04213
5.52800 -0.09480
5.53000 0.05718
5.53200 -0.03729
5.53400 -0.07863
5.53600 -0.04056
5.53800 0.04282
5.54000 0.03852
5.54200 -0.00673
5.54400 -0.01613
5.54600 -0.01167
5.54800 -0.00311
5.55000 -0.02230
5.55200 -0.08745
5.55400 0.02395
5.55600 -0.05065
5.55800 -0.01705
5.56000 -0.08363
5.56200 -0.07768
5.56400 -0.02370
5.56600 -0.02454
5.56800 -0.00655
5.57000 -0.02774
5.57200 0.10084
5.57400 -0.06728
5.57600 0.04382
5.57800 0.07946
5.58000 0.09026
5.58200 -0.04890
5.58400 0.02204
5.58600 -0.03323
5.58800 -0.04629
5.59000 -0.01401
5.59200 -0.04353
5.59400 -0.06171
5.59600 0.06646
5.59800 0.03444
5.60000 0.01994
5.60200 0.10196
5.60400 0.03537
5.60600 -0.10228
5.60800 0.03362
5.61000 -0.02663
5.61200 -0.03838
5.61400 0.03731
5.61600 0.08740
5.61800 0.01293
5.62000 -0.07920
5.62200 -0.14613
5.62400 -0.10913
5.62600 -0.05979
5.62800 0.07542
5.63000 -0.08426
5.63200 -0.02207
5.63400 0.04210
5.63600 0.02781
5.63800 -0.05700
5.64000 0.04700
5.64200 -0.00368
5.64400 -0.03930
5.64600 0.04739
5.64800 -0.00896
5.65000 0.07262
5.65200 -0.00667
5.65400 -0.06000
5.65600 0.02540
5.65800 0.11576
5.66000 -0.02727
5.66200 -0.02172
5.66400 0.06161
5.66600 0.01405
5.66800 0.07063
5.67000 -0.04160
5.67200 0.04328
5.67400 0.07639
5.67600 -0.06856
5.67800 0.09286
5.68000 -0.04515
5.68200 -0.02217
5.68400 0.07454
5.68600 0.02172
5.68800 -0.01385
5.69000 -0.03004
5.69200 0.05474
5.69400 0.09570
5.69600 -0.04921
5.69800 -0.06361
5.70000 -0.03243
5.70200 0.02613
5.70400 0.03021
5.70600 0.08898
5.70800 0.01109
5.71000 0.00016
5.71200 -0.07209
5.71400 0.00086
5.71600 -0.01416
5.71800 0.12198
5.72000 -0.10576
5.72200 0.08533
5.72400 -0.07390
5.72600 0.05120
5.72800 -0.14881
5.73000 -0.03212
5.73200 -0.01281
5.73400 -0.00257
5.73600 0.00043
5.73800 0.02593
5.74000 -0.05860
5.74200 0.01488
5.74400 0.12421
5.74600 -0.09105
5.74800 -0.02269
5.75000 0.00368
5.75200 -0.00372
5.75400 -0.05570
5.75600 0.03783
5.75800 0.00091
5.76000 0.07691
5.76200 -0.03399
5.76400 -0.11467
5.76600 -0.03305
5.76800 0.10243
5.77000 0.00745
5.77200 0.05054
5.77400 0.00954
5.77600 0.02286
5.77800 0.05078
5.78000 0.06066
5.78200 -0.01865
5.78400 0.12546
5.78600 0.05914
5.78800 0.06774
5.79000 -0.10036
5.79200 -0.05271
5.79400 0.01511
5.79600 -0.06344
5.79800 -0.03186
5.80000 0.00958
5.80200 0.01571
5.80400 0.01922
5.80600 0.09245
5.80800 0.03181
5.81000 0.03161
5.81200 -0.00034
5.81400 0.04119
5.81600 -0.00052
5.81800 -0.04950
5.82000 0.01320
5.82200 0.05616
5.82400 -0.06326
5.82600 0.04664
5.82800 -0.07145
5.83000 -0.16337
5.83200 0.09978
5.83400 0.02670
5.83600 0.03332
5.83800 0.03456
5.84000 -0.05467
5.84200 0.09550
5.84400 0.08314
5.84600 0.01507
5.84800 -0.03286
5.85000 -0.10281
5.85200 -0.00266
5.85400 0.03087
5.85600 0.05796
5.85800 -0.11932
5.86000 0.06437
5.86200 -0.04912
5.86400 -0.08007
5.86600 -0.00996
5.86800 -0.13273
5.87000 0.01893
5.87200 -0.07202
5.87400 -0.05648
5.87600 -0.02423
5.87800 -0.05743
5.88000 -0.03562
5.88200 0.14128
5.88400 0.71248
5.88600 1.24255
5.88800 1.52849
5.89000 1.15030
5.89200 0.71002
5.89400 0.12147
5.89600 0.07316
5.89800 0.07331
5.90000 0.03905
5.90200 -0.05057
5.90400 0.08259
5.90600 0.09080
5.90800 0.03924
5.91000 0.03145
5.91200 0.09268
5.91400 -0.01537
5.91600 -0.00076
5.91800 0.02393
5.92000 -0.07780
5.92200 0.01210
5.92400 0.03736
5.92600 -0.06140
5.92800 -0.02005
5.93000 -0.11128
5.93200 0.02448
5.93400 -0.02779
5.93600 0.01801
5.93800 -0.07239
5.94000 -0.02912
5.94200 0.14546
5.94400 0.01767
5.94600 -0.00093
5.94800 0.01508
5.95000 0.02497
5.95200 -0.01771
5.95400 0.04651
5.95600 0.07733
5.95800 -0.02794
5.96000 0.01123
5.96200 -0.03472
5.96400 0.05504
5.96600 -0.07271
5.96800 -0.00810
5.97000 0.02671
5.97200 0.02282
5.97400 0.00359
5.97600 -0.07736
5.97800 -0.00812
5.98000 -0.07088
5.98200 0.09798
5.98400 -0.04134
5.98600 -0.01741
5.98800 0.04239
5.99000 0.06991
5.99200 -0.04956
5.99400 -0.01169
5.99600 0.02317
5.99800 0.05340
6.00000 0.03209
6.00200 -0.00845
6.00400 0.04673
6.00600 0.03497
6.00800 -0.02834
6.01000 -0.01042
6.01200 0.09545
6.01400 0.04925
6.01600 -0.03728
6.01800 -0.03180
6.02000 -0.06904
6.02200 -0.10826
6.02400 -0.04033
6.02600 -0.00794
6.02800 -0.07329
6.03000 -0.03119
6.03200 0.00264
6.03400 -0.05563
6.03600 -0.01085
6.03800 0.00503
6.04000 0.05392
6.04200 -0.04907
6.04400 -0.10509
6.04600 0.00846
6.04800 0.02099
6.05000 -0.02334
6.05200 -0.01069
6.05400 0.07182
6.05600 0.02360
6.05800 0.06203
6.06000 0.00667
6.06200 -0.00459
6.06400 0.00331
6.06600 0.04334
6.06800 0.01450
6.07000 0.09976
6.07200 0.03390
6.07400 0.12957
6.07600 0.02845
6.07800 -0.00358
6.08000 0.00860
6.08200 -0.10015
6.08400 0.08422
6.08600 0.01454
6.08800 -0.03514
6.09000 0.00785
6.09200 0.05037
6.09400 0.00732
6.09600 0.01292
6.09800 0.03527
6.10000 0.01465
6.10200 -0.02158
6.10400 -0.07112
6.10600 -0.02959
6.10800 0.09872
6.11000 -0.04111
6.11200 0.05000
6.11400 -0.03526
6.11600 0.03983
6.11800 0.04441
6.12000 0.04541
6.12200 -0.03271
6.12400 -0.04138
6.12600 0.07909
6.12800 0.00002
6.13000 -0.04810
6.13200 -0.03718
6.13400 0.02144
6.13600 -0.02398
6.13800 0.04854
6.14000 0.06430
6.14200 0.03608
6.14400 0.05319
6.14600 -0.05532
6.14800 -0.06105
6.15000 0.05338
6.15200 0.00329
6.15400 0.03713
6.15600 -0.01316
6.15800 0.07753
6.16000 -0.07395
6.16200 0.03964
6.16400 -0.03995
6.16600 0.06647
6.16800 0.08767
6.17000 0.12048
6.17200 -0.04759
6.17400 0.08718
6.17600 -0.09492
6.17800 -0.00346
6.18000 -0.03810
6.18200 0.01959
6.18400 0.10209
6.18600 0.02663
6.18800 -0.01138
6.19000 0.13560
6.19200 0.05031
6.19400 -0.00157
6.19600 0.03837
6.19800 0.09321
6.20000 -0.04434
6.20200 0.07556
6.20400 -0.00270
6.20600 -0.06708
6.20800 0.08285
6.21000 0.02782
6.21200 0.02973
6.21400 -0.05885
6.21600 -0.01598
6.21800 -0.00377
6.22000 -0.08323
6.22200 -0.02634
6.22400 0.00201
6.22600 -0.07711
6.22800 -0.04673
6.23000 -0.12290
6.23200 0.02131
6.23400 0.07366
6.23600 -0.06786
6.23800 0.09325
6.24000 0.07038
6.24200 0.01197
6.24400 0.04088
6.24600 0.12407
6.24800 -0.04440
6.25000 -0.02482
6.25200 -0.02392
6.25400 0.00327
6.25600 -0.10531
6.25800 -0.08974
6.26000 -0.04701
6.26200 -0.11532
6.26400 -0.08139
6.26600 0.00432
6.26800 -0.07676
6.27000 0.03819
6.27200 0.12293
6.27400 -0.12792
6.27600 0.05462
6.27800 0.17004
6.28000 -0.05152
6.28200 -0.01139
6.28400 -0.03452
6.28600 0.12342
6.28800 -0.05426
6.29000 -0.01335
6.29200 0.04874
6.29400 -0.03880
6.29600 0.05250
6.29800 0.06571
6.30000 -0.10108
6.30200 0.05281
6.30400 0.00986
6.30600 0.06271
6.30800 0.04353
6.31000 0.07755
6.31200 -0.05179
6.31400 -0.05741
6.31600 -0.03819
6.31800 0.12757
6.32000 -0.00537
6.32200 0.01614
6.32400 0.03325
6.32600 -0.07923
6.32800 0.00430
6.33000 -0.03163
6.33200 -0.00510
6.33400 -0.11565
6.33600 0.04771
6.33800 -0.04172
6.34000 0.02486
6.34200 0.03495
6.34400 0.02084
6.34600 0.00648
6.34800 0.08633
6.35000 0.05592
6.35200 -0.00372
6.35400 -0.01006
6.35600 0.00245
6.35800 0.01632
6.36000 -0.03102
6.36200 -0.11740
6.36400 0.02268
6.36600 -0.04724
6.36800 -0.02581
6.37000 0.04572
6.37200 0.03304
6.37400 -0.05672
6.37600 -0.10124
6.37800 -0.00333
6.38000 -0.00721
6.38200 -0.00665
6.38400 0.02135
6.38600 0.08742
6.38800 0.04242
6.39000 0.02315
6.39200 0.05120
6.39400 0.03804
6.39600 -0.00615
6.39800 -0.06609
6.40000 -0.12027
6.40200 0.11064
6.40400 0.01373
6.40600 -0.05999
6.40800 -0.10551
6.41000 0.08358
6.41200 -0.06202
6.41400 -0.01474
6.41600 -0.09204
6.41800 -0.01183
6.42000 0.07805
6.42200 0.05377
6.42400 0.04652
6.42600 -0.03628
6.42800 -0.01410
6.43000 0.07550
6.43200 -0.03353
6.43400 -0.00150
6.43600 -0.09056
6.43800 0.04684
6.44000 0.02182
6.44200 0.15533
6.44400 0.44920
6.44600 1.08686
6.44800 1.45345
6.45000 1.21710
6.45200 0.76028
6.45400 0.23830
6.45600 -0.00923
6.45800 -0.06678
6.46000 0.00711
6.46200 0.06227
6.46400 -0.08931
6.46600 0.05290
6.46800 0.09194
6.47000 -0.01200
6.47200 0.01075
6.47400 -0.01881
6.47600 -0.00134
6.47800 -0.01878
6.48000 -0.05128
6.48200 0.04931
6.48400 0.05773
6.48600 0.01042
6.48800 -0.01575
6.49000 -0.14086
6.49200 -0.02890
6.49400 -0.01226
6.49600 0.01631
6.49800 -0.06302
6.50000 -0.07571
6.50200 0.01994
6.50400 0.02697
6.50600 0.01934
6.50800 0.01552
6.51000 -0.02725
6.51200 -0.02251
6.51400 -0.14108
6.51600 0.02455
6.51800 0.01819
6.52000 -0.05453
6.52200 0.08384
6.52400 0.00768
6.52600 -0.01621
6.52800 0.09355
6.53000 -0.02359
6.53200 -0.02896
6.53400 0.09453
6.53600 0.02113
6.53800 0.09306
6.54000 0.08617
6.54200 0.18519
6.54400 0.08030
6.54600 -0.00283
6.54800 0.00456
6.55000 -0.12034
6.55200 0.05000
6.55400 -0.06140
6.55600 -0.09238
6.55800 -0.11389
6.56000 0.05331
6.56200 0.12570
6.56400 0.12089
6.56600 0.08889
6.56800 0.08365
6.57000 -0.08275
6.57200 -0.02091
6.57400 -0.05936
6.57600 0.06130
6.57800 -0.06706
6.58000 0.04345
6.58200 -0.11113
6.58400 0.03050
6.58600 0.07830
6.58800 0.03788
6.59000 0.06219
6.59200 0.02640
6.59400 0.01394
6.59600 0.10384
6.59800 -0.10609
6.60000 -0.03695
6.60200 0.07028
6.60400 -0.04324
6.60600 -0.03287
6.60800 -0.03057
6.61000 0.08076
6.61200 -0.03523
6.61400 0.01758
6.61600 -0.05076
6.61800 -0.00897
6.62000 0.02222
6.62200 0.01220
6.62400 0.12211
6.62600 -0.00033
6.62800 0.01388
6.63000 0.02375
6.63200 -0.03663
6.63400 0.05105
6.63600 0.00671
6.63800 -0.00857
6.64000 0.00666
6.64200 -0.01364
6.64400 -0.03304
6.64600 -0.02468
6.64800 -0.07981
6.65000 0.01053
6.65200 -0.06216
6.65400 0.04658
6.65600 -0.01568
6.65800 -0.02481
6.66000 0.06219
6.66200 -0.09846
6.66400 -0.00747
6.66600 -0.07296
6.66800 0.03594
6.67000 0.13156
6.67200 0.06366
6.67400 -0.10968
6.67600 0.02676
6.67800 -0.01200
6.68000 0.02157
6.68200 -0.02522
6.68400 0.06115
6.68600 0.06885
6.68800 0.01498
6.69000 0.02283
6.69200 0.00552
6.69400 -0.07545
6.69600 -0.08160
6.69800 -0.09378
6.70000 0.05715
6.70200 -0.08759
6.70400 0.00828
6.70600 -0.00094
6.70800 -0.08513
6.71000 -0.01613
6.71200 0.02076
6.71400 -0.02736
6.71600 0.00314
6.71800 -0.06026
6.72000 0.08279
6.72200 -0.00905
6.72400 -0.01917
6.72600 -0.02539
6.72800 -0.00574
6.73000 -0.00384
6.73200 0.10475
6.73400 -0.09248
6.73600 0.05434
6.73800 0.03792
6.74000 -0.02659
6.74200 -0.03234
6.74400 0.01796
6.74600 0.05168
6.74800 -0.03325
6.75000 0.05312
6.75200 -0.02530
6.75400 -0.02228
6.75600 -0.06908
6.75800 0.07765
6.76000 0.09457
6.76200 -0.00352
6.76400 0.05749
6.76600 -0.05342
6.76800 0.01898
6.77000 0.00603
6.77200 0.08310
6.77400 -0.00134
6.77600 0.06070
6.77800 0.03679
6.78000 0.04051
6.78200 -0.01122
6.78400 0.01456
6.78600 -0.03103
6.78800 -0.06447
6.79000 -0.07442
6.79200 -0.00214
6.79400 -0.08292
6.79600 -0.03201
6.79800 -0.10988
6.80000 -0.06563
6.80200 -0.09528
6.80400 -0.04969
6.80600 -0.03997
6.80800 0.05297
6.81000 0.06644
6.81200 -0.10189
6.81400 0.05107
6.81600 0.03644
6.81800 -0.01933
6.82000 0.06607
6.82200 -0.06570
6.82400 0.02257
6.82600 -0.01985
6.82800 -0.07333
6.83000 0.04219
6.83200 -0.04643
6.83400 0.02690
6.83600 -0.07276
6.83800 0.02278
6.84000 0.00712
6.84200 -0.00809
6.84400 -0.10748
6.84600 0.01979
6.84800 -0.00434
6.85000 0.02509
6.85200 -0.01409
6.85400 -0.01974
6.85600 -0.02657
6.85800 0.01951
6.86000 0.03125
6.86200 0.05231
6.86400 -0.07473
6.86600 0.02219
6.86800 0.10486
6.87000 0.06293
6.87200 0.05400
6.87400 -0.07597
6.87600 -0.01168
6.87800 -0.15114
6.88000 -0.01766
6.88200 0.04106
6.88400 -0.02828
6.88600 -0.07157
6.88800 -0.05422
6.89000 0.10629
6.89200 -0.02245
6.89400 0.02873
6.89600 -0.06344
6.89800 -0.07924
6.90000 -0.06446
6.90200 0.00598
6.90400 -0.01698
6.90600 -0.01836
6.90800 0.03927
6.91000 0.08135
6.91200 -0.14662
6.91400 -0.03541
6.91600 -0.02260
6.91800 -0.00059
6.92000 0.08998
6.92200 0.04958
6.92400 -0.01586
6.92600 0.03095
6.92800 0.12673
6.93000 0.05636
6.93200 -0.03883
6.93400 0.01249
6.93600 0.09569
6.93800 -0.05565
6.94000 -0.01801
6.94200 -0.07911
6.94400 -0.01894
6.94600 -0.05881
6.94800 0.02795
6.95000 -0.04251
6.95200 -0.00200
6.95400 -0.05909
6.95600 -0.13481
6.95800 0.01182
6.96000 0.06204
6.96200 -0.06790
6.96400 0.02431
6.96600 -0.02940
6.96800 -0.02413
6.97000 -0.02279
6.97200 -0.04776
6.97400 -0.05018
6.97600 0.02939
6.97800 -0.06916
6.98000 0.04489
6.98200 -0.01446
6.98400 -0.01730
6.98600 0.01267
6.98800 0.10367
6.99000 -0.04661
6.99200 0.08891
6.99400 -0.03931
6.99600 -0.07202
6.99800 0.13218
7.00000 -0.03613
7.00200 -0.05249
7.00400 0.32006
7.00600 0.83621
7.00800 1.33547
7.01000 1.47657
7.01200 0.97105
7.01400 0.43121
7.01600 0.17396
7.01800 0.09438
7.02000 0.11849
7.02200 0.13419
7.02400 0.03202
7.02600 -0.09609
7.02800 -0.08930
7.03000 0.11408
7.03200 -0.03717
7.03400 0.01711
7.03600 0.00927
7.03800 -0.06907
7.04000 0.00267
7.04200 0.07834
7.04400 -0.06182
7.04600 -0.10347
7.04800 0.01047
7.05000 -0.03272
7.05200 0.03632
7.05400 0.10947
7.05600 -0.00202
7.05800 -0.10592
7.06000 -0.01019
7.06200 -0.05879
7.06400 -0.10592
7.06600 0.02767
7.06800 0.02080
7.07000 0.02676
7.07200 -0.02200
7.07400 -0.04387
7.07600 0.02048
7.07800 0.07003
7.08000 0.05866
7.08200 0.03144
7.08400 0.00065
7.08600 0.05314
7.08800 -0.06650
7.09000 0.10398
7.09200 -0.04601
7.09400 -0.02510
7.09600 0.00911
7.09800 -0.01060
7.10000 0.09370
7.10200 -0.11264
7.10400 0.01788
7.10600 -0.05810
7.10800 0.01380
7.11000 0.06162
7.11200 -0.01286
7.11400 0.10720
7.11600 0.04392
7.11800 0.15979
7.12000 0.03468
7.12200 -0.11227
7.12400 0.05323
7.12600 -0.02369
7.12800 -0.06463
7.13000 -0.02792
7.13200 0.06492
7.13400 -0.08913
7.13600 0.01209
7.13800 -0.01527
7.14000 0.00197
7.14200 0.06866
7.14400 0.04392
7.14600 0.17683
7.14800 0.03769
7.15000 0.00017
7.15200 0.01553
7.15400 0.02347
7.15600 0.07728
7.15800 -0.06769
7.16000 0.02491
7.16200 0.00689
7.16400 0.01875
7.16600 0.00443
7.16800 -0.06199
7.17000 0.06029
7.17200 0.01034
7.17400 0.01147
7.17600 -0.03501
7.17800 0.04360
7.18000 -0.09886
7.18200 0.00817
7.18400 0.03636
7.18600 -0.00317
7.18800 -0.02506
7.19000 -0.01124
7.19200 -0.03955
7.19400 -0.00909
7.19600 -0.03152
7.19800 0.02152
7.20000 0.07378
7.20200 -0.01582
7.20400 0.02239
7.20600 -0.03908
7.20800 -0.01566
7.21000 0.03016
7.21200 0.01879
7.21400 -0.07601
7.21600 -0.01820
7.21800 -0.00612
7.22000 -0.09457
7.22200 0.00827
7.22400 0.09559
7.22600 0.02535
7.22800 0.03430
7.23000 -0.05538
7.23200 0.00815
7.23400 0.02222
7.23600 0.00180
7.23800 -0.04196
7.24000 -0.09639
7.24200 -0.07723
7.24400 0.03254
7.24600 -0.02987
7.24800 -0.04571
7.25000 0.04917
7.25200 0.07696
7.25400 0.01123
7.25600 0.05146
7.25800 -0.01098
7.26000 0.10998
7.26200 -0.02265
7.26400 0.01643
7.26600 -0.09657
7.26800 0.00437
7.27000 -0.06745
7.27200 0.02138
7.27400 -0.04941
7.27600 -0.04053
7.27800 -0.09295
7.28000 -0.18901
7.28200 0.07141
7.28400 -0.05899
7.28600 -0.00130
7.28800 -0.07532
7.29000 -0.00388
7.29200 0.06640
7.29400 -0.01774
7.29600 0.04225
7.29800 0.01598
7.30000 -0.05507
7.30200 -0.10040
7.30400 -0.04006
7.30600 0.09341
7.30800 -0.13015
7.31000 -0.01096
7.31200 0.01228
7.31400 0.06108
7.31600 0.05161
7.31800 -0.00975
7.32000 0.07311
7.32200 0.01226
7.32400 0.07404
7.32600 -0.06135
7.32800 0.04672
7.33000 -0.07171
7.33200 -0.02490
7.33400 0.04685
7.33600 0.06524
7.33800 -0.03452
7.34000 0.05928
7.34200 0.03219
7.34400 -0.04797
7.34600 -0.05377
7.34800 0.02258
7.35000 -0.06332
7.35200 -0.00877
7.35400 0.05691
7.35600 0.08244
7.35800 -0.04012
7.36000 -0.06941
7.36200 -0.00743
7.36400 -0.06409
7.36600 0.01583
7.36800 -0.01980
7.37000 -0.11141
7.37200 -0.01193
7.37400 -0.07581
7.37600 -0.00450
7.37800 0.03694
7.38000 -0.01161
7.38200 0.05669
7.38400 -0.01184
7.38600 0.01210
7.38800 0.01614
7.39000 0.03505
7.39200 0.01461
7.39400 -0.03913
7.39600 0.00362
7.39800 0.01354
7.40000 0.07757
7.40200 0.01237
7.40400 -0.00980
7.40600 -0.10395
7.40800 0.09606
7.41000 0.01467
7.41200 -0.03929
7.41400 -0.02396
7.41600 0.01288
7.41800 0.06737
7.42000 0.07153
7.42200 0.07318
7.42400 -0.03498
7.42600 0.00355
7.42800 0.03930
7.43000 0.02642
7.43200 -0.07184
7.43400 -0.04651
7.43600 0.09937
7.43800 0.00819
7.44000 -0.06299
7.44200 -0.06564
7.44400 0.03342
7.44600 0.00948
7.44800 0.04608
7.45000 0.08891
7.45200 0.05097
7.45400 -0.09155
7.45600 -0.07205
7.45800 0.02715
7.46000 -0.00401
7.46200 0.04780
7.46400 0.02136
7.46600 0.02233
7.46800 -0.07253
7.47000 0.02901
7.47200 0.02525
7.47400 -0.12859
7.47600 0.12636
7.47800 -0.08718
7.48000 0.03821
7.48200 -0.05081
7.48400 0.00942
7.48600 0.03224
7.48800 -0.01421
7.49000 -0.01532
7.49200 0.06142
7.49400 -0.17519
7.49600 -0.02907
7.49800 -0.13964
7.50000 0.00866
7.50200 0.02660
7.50400 -0.01091
7.50600 -0.08996
7.50800 0.10072
7.51000 0.01541
7.51200 -0.03864
7.51400 0.01012
7.51600 0.06921
7.51800 0.03420
7.52000 -0.00706
7.52200 0.02118
7.52400 -0.03047
7.52600 0.03336
7.52800 -0.00810
7.53000 0.00669
7.53200 -0.02371
7.53400 0.02000
7.53600 0.07828
7.53800 0.05676
7.54000 -0.04399
7.54200 0.01883
7.54400 -0.04179
7.54600 -0.03766
7.54800 -0.00574
7.55000 0.04405
7.55200 -0.12430
7.55400 -0.07309
7.55600 -0.01992
7.55800 0.00410
7.56000 0.04991
7.56200 -0.05408
7.56400 0.17237
7.56600 0.57740
7.56800 1.24934
7.57000 1.48286
7.57200 1.30470
7.57400 0.64362
7.57600 0.08042
7.57800 0.13097
7.58000 0.04828
7.58200 0.07119
7.58400 0.03152
7.58600 0.04180
7.58800 0.03835
7.59000 0.06426
7.59200 -0.01776
7.59400 -0.03273
7.59600 0.08075
7.59800 -0.00858
7.60000 0.09037
7.60200 0.04086
7.60400 0.02607
7.60600 0.05581
7.60800 -0.06648
7.61000 -0.00204
7.61200 -0.08470
7.61400 0.04668
7.61600 0.04826
7.61800 -0.10349
7.62000 0.04723
7.62200 0.00240
7.62400 -0.12976
7.62600 0.19740
7.62800 0.02775
7.63000 -0.04258
7.63200 -0.04041
7.63400 -0.15109
7.63600 0.02657
7.63800 -0.05499
7.64000 -0.11159
7.64200 -0.00903
7.64400 0.07769
7.64600 0.06304
7.64800 -0.06313
7.65000 0.00989
7.65200 -0.06264
7.65400 -0.01769
7.65600 0.08664
7.65800 -0.07568
7.66000 0.04034
7.66200 0.02197
7.66400 -0.00613
7.66600 0.06387
7.66800 0.00936
7.67000 -0.02124
7.67200 -0.12880
7.67400 -0.04394
7.67600 -0.03457
7.67800 -0.05103
7.68000 0.01506
7.68200 -0.03650
7.68400 -0.03714
7.68600 -0.12678
7.68800 0.03048
7.69000 0.00748
7.69200 -0.00433
7.69400 -0.03950
7.69600 -0.10391
7.69800 0.04554
7.70000 0.05764
7.70200 0.05549
7.70400 -0.08812
7.70600 0.05325
7.70800 -0.00057
7.71000 0.02187
7.71200 -0.00225
7.71400 -0.03372
7.71600 -0.05822
7.71800 -0.08834
7.72000 0.02527
7.72200 0.04447
7.72400 -0.03420
7.72600 -0.05480
7.72800 -0.00234
7.73000 -0.00010
7.73200 0.01625
7.73400 -0.00240
7.73600 0.04742
7.73800 0.00165
7.74000 -0.03760
7.74200 -0.04824
7.74400 -0.10152
7.74600 0.08254
7.74800 0.04000
7.75000 0.00247
7.75200 -0.04529
7.75400 -0.11473
7.75600 -0.04254
7.75800 0.00146
7.76000 0.01930
7.76200 -0.05503
7.76400 0.00001
7.76600 -0.05770
7.76800 -0.01885
7.77000 -0.11308
7.77200 0.11339
7.77400 0.03778
7.77600 -0.01155
7.77800 0.08903
7.78000 0.08504
7.78200 -0.00267
7.78400 0.05674
7.78600 -0.00226
7.78800 0.01143
7.79000 0.02164
7.79200 0.03926
7.79400 0.02239
7.79600 -0.05416
7.79800 -0.08014
7.80000 0.03791
7.80200 -0.09966
7.80400 -0.00481
7.80600 0.00153
7.80800 0.07273
7.81000 0.03092
7.81200 0.07567
7.81400 0.01349
7.81600 0.02024
7.81800 0.02989
7.82000 -0.00106
7.82200 -0.09482
7.82400 -0.08141
7.82600 -0.00736
7.82800 0.08007
7.83000 -0.04475
7.83200 0.01425
7.83400 -0.00443
7.83600 -0.10955
7.83800 0.09325
7.84000 0.01732
7.84200 0.03544
7.84400 -0.00077
7.84600 0.07821
7.84800 0.10743
7.85000 -0.00931
7.85200 -0.08203
7.85400 -0.07575
7.85600 0.02615
7.85800 0.04042
7.86000 0.00326
7.86200 0.08608
7.86400 -0.03032
7.86600 -0.06128
7.86800 -0.05962
7.87000 0.07267
7.87200 0.01027
7.87400 0.05347
7.87600 -0.10939
7.87800 -0.05018
7.88000 -0.06702
7.88200 0.01293
7.88400 0.00987
7.88600 0.00777
7.88800 0.02736
7.89000 0.05686
7.89200 -0.00358
7.89400 -0.05801
7.89600 -0.10931
7.89800 0.06068
7.90000 0.08784
7.90200 0.00991
7.90400 0.03796
7.90600 -0.00561
7.90800 0.04477
7.91000 -0.01256
7.91200 0.00957
7.91400 -0.03890
7.91600 -0.05766
7.91800 -0.04235
7.92000 0.03133
7.92200 0.01650
7.92400 -0.03610
7.92600 -0.01447
7.92800 -0.02556
7.93000 0.00281
7.93200 -0.01113
7.93400 0.08852
7.93600 0.00469
7.93800 0.04985
7.94000 -0.08928
7.94200 0.03665
7.94400 0.03174
7.94600 0.07312
7.94800 0.05559
7.95000 0.04701
7.95200 -0.02699
7.95400 -0.03737
7.95600 0.07831
7.95800 -0.02438
7.96000 -0.01269
7.96200 0.02197
7.96400 0.08976
7.96600 0.03732
7.96800 -0.02458
7.97000 0.00384
7.97200 -0.00277
7.97400 0.02667
7.97600 0.02195
7.97800 0.05985
7.98000 0.02780
7.98200 -0.05181
7.98400 0.09533
7.98600 0.11485
7.98800 0.04577
7.99000 0.11136
7.99200 -0.01395
7.99400 -0.05401
7.99600 0.06747
7.99800 -0.07134
8.00000 0.07226
8.00200 0.08328
8.00400 -0.04750
8.00600 -0.06085
8.00800 0.05043
8.01000 -0.04690
8.01200 -0.02820
8.01400 -0.04360
8.01600 -0.09194
8.01800 0.12728
8.02000 0.04519
8.02200 -0.00711
8.02400 0.05741
8.02600 -0.10134
8.02800 0.02547
8.03000 -0.04480
8.03200 0.04507
8.03400 -0.00840
8.03600 0.04258
8.03800 0.02450
8.04000 0.00463
8.04200 0.04789
8.04400 -0.06092
8.04600 0.03687
8.04800 0.02709
8.05000 0.05357
8.05200 -0.00970
8.05400 0.08266
8.05600 0.13625
8.05800 -0.03107
8.06000 0.01390
8.06200 -0.02202
8.06400 0.06192
8.06600 0.02606
8.06800 0.02111
8.07000 -0.05656
8.07200 0.10261
8.07400 0.04002
8.07600 0.01803
8.07800 0.01642
8.08000 -0.06883
8.08200 0.05094
8.08400 -0.05020
8.08600 0.02511
8.08800 -0.08477
8.09000 -0.05778
8.09200 0.11758
8.09400 0.00608
8.09600 0.01200
8.09800 -0.04715
8.10000 -0.01240
8.10200 0.01510
8.10400 0.08480
8.10600 0.09865
8.10800 -0.04188
8.11000 -0.01289
8.11200 0.08800
8.11400 0.00277
8.11600 0.03156
8.11800 0.06338
8.12000 0.00903
8.12200 -0.05695
8.12400 0.12291
8.12600 0.42473
8.12800 1.00452
8.13000 1.44978
8.13200 1.39017
8.13400 0.85652
8.13600 0.30133
8.13800 -0.02775
8.14000 -0.17136
8.14200 -0.12222
8.14400 -0.13181
8.14600 0.00325
8.14800 -0.00484
8.15000 -0.00171
8.15200 -0.04210
8.15400 -0.10349
8.15600 0.06215
8.15800 0.04168
8.16000 -0.01678
8.16200 -0.03630
8.16400 -0.00134
8.16600 -0.03322
8.16800 -0.14159
8.17000 0.02060
8.17200 0.05137
8.17400 -0.02924
8.17600 0.04718
8.17800 -0.00207
8.18000 -0.03584
8.18200 -0.07504
8.18400 0.05130
8.18600 0.04434
8.18800 -0.02549
8.19000 -0.10323
8.19200 -0.04590
8.19400 0.05701
8.19600 0.05004
8.19800 0.09917
8.20000 -0.00659
8.20200 0.02462
8.20400 -0.09878
8.20600 -0.11556
8.20800 -0.05205
8.21000 0.03941
8.21200 0.01865
8.21400 0.00000
8.21600 0.04030
8.21800 0.09056
8.22000 -0.01042
8.22200 -0.10498
8.22400 -0.05810
8.22600 -0.02182
8.22800 -0.02471
8.23000 -0.01111
8.23200 -0.08884
8.23400 -0.02923
8.23600 -0.01879
8.23800 0.06396
8.24000 0.04123
8.24200 -0.03031
8.24400 0.04192
8.24600 0.01679
8.24800 0.17388
8.25000 -0.06241
8.25200 -0.01266
8.25400 -0.00865
8.25600 0.02366
8.25800 0.15056
8.26000 -0.03059
8.26200 -0.05717
8.26400 0.01055
8.26600 0.06437
8.26800 0.01760
8.27000 0.08233
8.27200 0.02481
8.27400 0.04205
8.27600 0.01002
8.27800 0.01416
8.28000 -0.04145
8.28200 0.00788
8.28400 0.04238
8.28600 0.05740
8.28800 0.07989
8.29000 -0.05586
8.29200 0.02270
8.29400 -0.01251
8.29600 -0.03498
8.29800 -0.01974
8.30000 0.09421
8.30200 -0.10486
8.30400 -0.11664
8.30600 -0.07395
8.30800 -0.08810
8.31000 0.00837
8.31200 -0.02535
8.31400 0.07749
8.31600 -0.01895
8.31800 0.01477
8.32000 -0.06470
8.32200 0.06181
8.32400 0.01810
8.32600 -0.03449
8.32800 0.02432
8.33000 -0.04378
8.33200 0.04373
8.33400 -0.01916
8.33600 0.03387
8.33800 -0.05166
8.34000 0.06186
8.34200 0.10139
8.34400 -0.03576
8.34600 0.01664
8.34800 -0.09207
8.35000 0.03515
8.35200 0.03247
8.35400 -0.03529
8.35600 0.06470
8.35800 -0.00883
8.36000 0.07052
8.36200 -0.00280
8.36400 0.08441
8.36600 0.01759
8.36800 0.09284
8.37000 -0.06387
8.37200 0.05382
8.37400 0.01547
8.37600 0.03501
8.37800 -0.01635
8.38000 0.01701
8.38200 -0.03807
8.38400 0.01967
8.38600 0.03536
8.38800 -0.10628
8.39000 0.00082
8.39200 -0.07142
8.39400 0.07142
8.39600 0.03524
8.39800 -0.11828
8.40000 -0.01571
8.40200 -0.02727
8.40400 -0.03911
8.40600 -0.01121
8.40800 0.02620
8.41000 -0.01154
8.41200 -0.06806
8.41400 0.02344
8.41600 0.01462
8.41800 -0.07699
8.42000 -0.05303
8.42200 -0.05022
8.42400 -0.00685
8.42600 -0.05585
8.42800 0.05252
8.43000 -0.04178
8.43200 -0.06848
8.43400 -0.05351
8.43600 0.01302
8.43800 0.00437
8.44000 0.04049
8.44200 0.04163
8.44400 0.02291
8.44600 -0.10436
8.44800 0.04981
8.45000 -0.05522
8.45200 -0.04003
8.45400 -0.01291
8.45600 0.08748
8.45800 -0.06831
8.46000 0.06718
8.46200 -0.08529
8.46400 -0.06187
8.46600 -0.00159
8.46800 -0.01979
8.47000 0.02053
8.47200 0.14847
8.47400 0.01863
8.47600 0.00837
8.47800 0.00511
8.48000 0.07376
8.48200 0.07696
8.48400 0.02512
8.48600 -0.04375
8.48800 0.05905
8.49000 0.04789
8.49200 0.02700
8.49400 -0.06530
8.49600 0.08555
8.49800 -0.00995
8.50000 -0.03795
8.50200 0.02320
8.50400 -0.00511
8.50600 -0.00242
8.50800 0.10896
8.51000 -0.09849
8.51200 0.04969
8.51400 0.02975
8.51600 -0.01377
8.51800 -0.04879
8.52000 0.02434
8.52200 -0.04120
8.52400 -0.00167
8.52600 -0.04070
8.52800 -0.02203
8.53000 -0.02782
8.53200 0.02134
8.53400 0.02206
8.53600 0.03295
8.53800 -0.05410
8.54000 -0.02861
8.54200 0.08570
8.54400 0.00354
8.54600 0.04442
8.54800 0.01105
8.55000 -0.04827
8.55200 -0.02340
8.55400 0.01985
8.55600 0.01324
8.55800 0.04954
8.56000 -0.01080
8.56200 0.00074
8.56400 0.03695
8.56600 -0.01815
8.56800 -0.04027
8.57000 -0.07964
8.57200 0.05758
8.57400 0.04777
8.57600 -0.03975
8.57800 -0.06829
8.58000 -0.11464
8.58200 0.08308
8.58400 0.00552
8.58600 0.05209
8.58800 -0.04999
8.59000 0.03173
8.59200 0.05375
8.59400 0.01387
8.59600 0.03806
8.59800 -0.03004
8.60000 -0.02917
8.60200 -0.02392
8.60400 0.04580
8.60600 0.08218
8.60800 -0.03758
8.61000 0.02232
8.61200 0.12102
8.61400 -0.00825
8.61600 -0.03090
8.61800 -0.02054
8.62000 0.03916
8.62200 -0.05259
8.62400 0.00679
8.62600 -0.04901
8.62800 0.04723
8.63000 0.03412
8.63200 0.05463
8.63400 0.06695
8.63600 0.03954
8.63800 -0.02153
8.64000 0.00133
8.64200 0.00607
8.64400 0.03694
8.64600 0.01536
8.64800 -0.01935
8.65000 -0.03935
8.65200 0.00516
8.65400 -0.01477
8.65600 0.13331
8.65800 0.03279
8.66000 -0.02809
8.66200 0.03670
8.66400 -0.08235
8.66600 0.09756
8.66800 -0.08207
8.67000 -0.00494
8.67200 -0.11869
8.67400 -0.05103
8.67600 0.05313
8.67800 -0.07133
8.68000 -0.03692
8.68200 0.10783
8.68400 0.05357
8.68600 0.24828
8.68800 0.68924
8.69000 1.39339
8.69200 1.64709
8.69400 1.00096
8.69600 0.47533
8.69800 0.13532
8.70000 -0.03191
8.70200 -0.02952
8.70400 -0.05138
8.70600 -0.02908
8.70800 0.02409
8.71000 -0.08305
8.71200 0.02753
8.71400 0.04072
8.71600 -0.00157
8.71800 0.00883
8.72000 -0.04294
8.72200 0.08957
8.72400 0.02299
8.72600 -0.06162
8.72800 0.04448
8.73000 0.05558
8.73200 -0.06079
8.73400 -0.01814
8.73600 -0.03964
8.73800 -0.05763
8.74000 0.08767
8.74200 0.08787
8.74400 -0.02035
8.74600 -0.11969
8.74800 0.01704
8.75000 -0.04600
8.75200 -0.02280
8.75400 -0.00079
8.75600 -0.05263
8.75800 -0.00643
8.76000 0.00553
8.76200 0.12457
8.76400 -0.03004
8.76600 -0.08234
8.76800 0.01495
8.77000 0.12384
8.77200 -0.06854
8.77400 0.07165
8.77600 -0.06665
8.77800 -0.05407
8.78000 0.00352
8.78200 -0.14397
8.78400 -0.00717
8.78600 -0.00247
8.78800 -0.06966
8.79000 -0.00743
8.79200 -0.07414
8.79400 0.09326
8.79600 0.01216
8.79800 -0.07599
8.80000 -0.05461
8.80200 0.06571
8.80400 0.00644
8.80600 -0.06996
8.80800 0.08036
8.81000 -0.02770
8.81200 0.06132
8.81400 0.04849
8.81600 0.00989
8.81800 0.11470
8.82000 -0.03006
8.82200 0.08741
8.82400 0.01830
8.82600 -0.02148
8.82800 0.00537
8.83000 -0.02189
8.83200 0.01403
8.83400 0.02887
8.83600 0.00212
8.83800 0.02264
8.84000 -0.10423
8.84200 0.07126
8.84400 -0.10567
8.84600 0.01854
8.84800 -0.01897
8.85000 -0.03451
8.85200 -0.03658
8.85400 -0.09524
8.85600 -0.02662
8.85800 -0.03684
8.86000 -0.01373
8.86200 0.01737
8.86400 -0.04559
8.86600 -0.09418
8.86800 0.01276
8.87000 0.00662
8.87200 -0.06060
8.87400 0.02108
8.87600 0.07224
8.87800 0.07186
8.88000 0.09223
8.88200 -0.04295
8.88400 0.08923
8.88600 0.01483
8.88800 -0.04048
8.89000 0.08980
8.89200 -0.00313
8.89400 -0.01063
8.89600 0.00903
8.89800 -0.11042
8.90000 0.07963
8.90200 -0.00571
8.90400 -0.06168
8.90600 0.07489
8.90800 0.11530
8.91000 -0.04111
8.91200 0.13084
8.91400 -0.02512
8.91600 -0.03994
8.91800 0.11832
8.92000 -0.04060
8.92200 0.10386
8.92400 -0.00217
8.92600 0.00443
8.92800 -0.01390
8.93000 -0.13842
8.93200 0.03154
8.93400 -0.04697
8.93600 0.00234
8.93800 0.04048
8.94000 0.02744
8.94200 -0.04494
8.94400 0.10136
8.94600 0.08751
8.94800 -0.03712
8.95000 -0.09724
8.95200 0.02270
8.95400 -0.03121
8.95600 -0.04952
8.95800 -0.01871
8.96000 -0.02158
8.96200 -0.03577
8.96400 0.13221
8.96600 0.07345
8.96800 0.01336
8.97000 -0.00736
8.97200 -0.04971
8.97400 0.00063
8.97600 0.03343
8.97800 -0.03799
8.98000 0.02626
8.98200 -0.07268
8.98400 0.04596
8.98600 0.07519
8.98800 0.03088
8.99000 -0.01764
8.99200 -0.06032
8.99400 0.02558
8.99600 -0.03645
8.99800 0.02514
9.00000 0.12354
9.00200 0.03247
9.00400 0.01857
9.00600 0.00630
9.00800 0.00863
9.01000 0.00497
9.01200 0.03104
9.01400 0.05059
9.01600 -0.04234
9.01800 -0.09116
9.02000 -0.01529
9.02200 -0.02002
9.02400 -0.07639
9.02600 0.03511
9.02800 -0.15417
9.03000 0.06582
9.03200 -0.02026
9.03400 -0.07439
9.03600 0.09065
9.03800 -0.13710
9.04000 -0.00657
9.04200 -0.03106
9.04400 0.01785
9.04600 0.02780
9.04800 0.01320
9.05000 -0.00993
9.05200 -0.10005
9.05400 0.08194
9.05600 -0.05768
9.05800 -0.05532
9.06000 -0.03510
9.06200 0.05514
9.06400 0.05844
9.06600 0.05471
9.06800 -0.01136
9.07000 0.01541
9.07200 0.00839
9.07400 -0.03618
9.07600 0.04761
9.07800 0.03457
9.08000 -0.06262
9.08200 0.15504
9.08400 0.01610
9.08600 0.00336
9.08800 -0.01283
9.09000 0.04066
9.09200 -0.04164
9.09400 0.04757
9.09600 -0.00129
9.09800 -0.01359
9.10000 -0.07502
9.10200 0.04225
9.10400 0.11544
9.10600 0.07109
9.10800 0.00923
9.11000 0.02932
9.11200 -0.08597
9.11400 0.08632
9.11600 -0.09115
9.11800 0.03172
9.12000 -0.06408
9.12200 0.00501
9.12400 -0.07348
9.12600 -0.05060
9.12800 -0.06659
9.13000 0.00587
9.13200 -0.08215
9.13400 0.05190
9.13600 0.04498
9.13800 -0.08608
9.14000 -0.05270
9.14200 0.04378
9.14400 0.01784
9.14600 -0.04227
9.14800 0.02938
9.15000 -0.07621
9.15200 0.08543
9.15400 -0.02460
9.15600 -0.04057
9.15800 -0.05617
9.16000 0.10402
9.16200 0.00755
9.16400 0.05059
9.16600 0.09860
9.16800 -0.02986
9.17000 0.05052
9.17200 -0.01258
9.17400 0.08137
9.17600 0.05356
9.17800 -0.00259
9.18000 -0.02435
9.18200 -0.01850
9.18400 -0.16378
9.18600 0.06863
9.18800 -0.11908
9.19000 0.03848
9.19200 -0.05891
9.19400 -0.04743
9.19600 0.04392
9.19800 -0.02910
9.20000 -0.02547
9.20200 -0.03790
9.20400 0.03404
9.20600 -0.13897
9.20800 -0.02881
9.21000 -0.04680
9.21200 -0.07643
9.21400 0.00839
9.21600 -0.05279
9.21800 0.02789
9.22000 0.00497
9.22200 -0.00992
9.22400 -0.05674
9.22600 -0.00807
9.22800 -0.00244
9.23000 0.03816
9.23200 -0.00592
9.23400 -0.12798
9.23600 -0.01059
9.23800 -0.05684
9.24000 0.06016
9.24200 0.02620
9.24400 0.09782
9.24600 0.25546
9.24800 0.57559
9.25000 1.03461
9.25200 1.51190
9.25400 1.23562
9.25600 0.72701
9.25800 0.34129
9.26000 0.13246
9.26200 0.05103
9.26400 0.03857
9.26600 0.08792
9.26800 0.01980
9.27000 -0.09839
9.27200 -0.07598
9.27400 -0.09159
9.27600 0.08280
9.27800 0.03314
9.28000 -0.02173
9.28200 0.10896
9.28400 0.00290
9.28600 0.01936
9.28800 -0.07001
9.29000 -0.02705
9.29200 0.02282
9.29400 0.06312
9.29600 0.00187
9.29800 -0.06750
9.30000 -0.05253
9.30200 -0.04132
9.30400 0.06041
9.30600 0.01358
9.30800 0.04394
9.31000 -0.03752
9.31200 -0.03359
9.31400 -0.02927
9.31600 -0.00331
9.31800 0.03222
9.32000 0.08323
9.32200 -0.00646
9.32400 -0.02122
9.32600 0.00533
9.32800 -0.05297
9.33000 -0.05987
9.33200 -0.00736
9.33400 -0.02130
9.33600 0.01746
9.33800 0.05311
9.34000 0.06968
9.34200 -0.16585
9.34400 0.06847
9.34600 -0.04640
9.34800 0.04725
9.35000 -0.08794
9.35200 0.06097
9.35400 -0.03037
9.35600 -0.02285
9.35800 -0.07588
9.36000 0.01833
9.36200 -0.08560
9.36400 -0.02812
9.36600 -0.00165
9.36800 0.01010
9.37000 -0.09735
9.37200 -0.04197
9.37400 0.03493
9.37600 -0.03127
9.37800 0.00444
9.38000 -0.05783
9.38200 0.12220
9.38400 0.01086
9.38600 -0.10892
9.38800 -0.00712
9.39000 0.08223
9.39200 -0.01241
9.39400 0.01352
9.39600 -0.04508
9.39800 0.01260
9.40000 -0.01243
9.40200 -0.10295
9.40400 0.01703
9.40600 -0.03479
9.40800 0.01938
9.41000 -0.00844
9.41200 0.00762
9.41400 -0.06073
9.41600 0.08905
9.41800 0.07003
9.42000 0.04536
9.42200 0.06756
9.42400 -0.05726
9.42600 0.14469
9.42800 -0.07067
9.43000 -0.14037
9.43200 0.04629
9.43400 0.00005
9.43600 0.02059
9.43800 -0.10691
9.44000 -0.01017
9.44200 -0.06092
9.44400 0.03141
9.44600 -0.03716
9.44800 -0.02654
9.45000 0.01216
9.45200 -0.01624
9.45400 0.05573
9.45600 0.02190
9.45800 -0.07204
9.46000 -0.02857
9.46200 0.01469
9.46400 0.01578
9.46600 -0.03778
9.46800 -0.02761
9.47000 0.08316
9.47200 0.05518
9.47400 0.06496
9.47600 0.02852
9.47800 0.05121
9.48000 0.01722
9.48200 0.05303
9.48400 -0.06027
9.48600 -0.03992
9.48800 0.04504
9.49000 0.01814
9.49200 0.04667
9.49400 -0.04367
9.49600 -0.12723
9.49800 -0.11633
9.50000 -0.05767
9.50200 -0.00701
9.50400 -0.01145
9.50600 -0.00039
9.50800 0.04011
9.51000 -0.01624
9.51200 -0.00127
9.51400 0.00988
9.51600 -0.04726
9.51800 -0.05028
9.52000 0.00576
9.52200 -0.01020
9.52400 -0.06504
9.52600 -0.05258
9.52800 0.03840
9.53000 0.13499
9.53200 0.11257
9.53400 -0.00452
9.53600 0.00385
9.53800 0.00360
9.54000 0.03801
9.54200 0.02479
9.54400 -0.04357
9.54600 -0.03737
9.54800 0.04348
9.55000 0.07973
9.55200 -0.13978
9.55400 0.04812
9.55600 -0.06576
9.55800 0.04176
9.56000 -0.02259
9.56200 0.02229
9.56400 0.01968
9.56600 -0.10658
9.56800 -0.01887
9.57000 -0.00068
9.57200 -0.01751
9.57400 -0.07963
9.57600 0.00439
9.57800 -0.01976
9.58000 -0.06401
9.58200 0.11547
9.58400 -0.04382
9.58600 -0.00033
9.58800 -0.03467
9.59000 -0.01280
9.59200 0.04142
9.59400 -0.03316
9.59600 0.03325
9.59800 -0.01799
9.60000 0.05410
9.60200 0.08846
9.60400 -0.04470
9.60600 -0.04328
9.60800 -0.04190
9.61000 -0.03090
9.61200 0.00584
9.61400 -0.03644
9.61600 -0.11028
9.61800 -0.01173
9.62000 0.10158
9.62200 -0.02991
9.62400 0.06858
9.62600 0.12891
9.62800 0.04380
9.63000 -0.01415
9.63200 0.01809
9.63400 -0.06471
9.63600 0.04466
9.63800 0.02987
9.64000 0.03182
9.64200 -0.06395
9.64400 -0.02410
9.64600 -0.11324
9.64800 -0.02000
9.65000 0.00841
9.65200 -0.05790
9.65400 -0.01531
9.65600 0.08430
9.65800 -0.00965
9.66000 -0.09166
9.66200 0.05323
9.66400 -0.08140
9.66600 0.02500
9.66800 0.06021
9.67000 -0.04320
9.67200 0.02240
9.67400 -0.05737
9.67600 -0.00974
9.67800 -0.02246
9.68000 -0.02750
9.68200 -0.01471
9.68400 -0.00853
9.68600 0.02715
9.68800 0.14829
9.69000 0.02396
9.69200 -0.07616
9.69400 0.01213
9.69600 0.06561
9.69800 0.07897
9.70000 -0.02068
9.70200 -0.05400
9.70400 -0.04239
9.70600 0.05347
9.70800 -0.07251
9.71000 0.07098
9.71200 0.00617
9.71400 0.01198
9.71600 0.08768
9.71800 -0.03353
9.72000 -0.04945
9.72200 0.00171
9.72400 0.02945
9.72600 -0.00933
9.72800 -0.02477
9.73000 0.01276
9.73200 0.02413
9.73400 0.07145
9.73600 -0.07180
9.73800 -0.06767
9.74000 -0.02845
9.74200 0.01467
9.74400 -0.10193
9.74600 0.08897
9.74800 0.07168
9.75000 0.01911
9.75200 0.01999
9.75400 0.08224
9.75600 0.01063
9.75800 -0.06399
9.76000 -0.01495
9.76200 -0.13673
9.76400 -0.09689
9.76600 -0.04792
9.76800 0.05056
9.77000 -0.04719
9.77200 -0.02596
9.77400 -0.04143
9.77600 0.06342
9.77800 -0.00076
9.78000 0.00555
9.78200 -0.02380
9.78400 -0.05825
9.78600 0.04897
9.78800 -0.05137
9.79000 -0.00472
9.79200 -0.03903
9.79400 -0.01045
9.79600 0.05165
9.79800 0.04937
9.80000 0.00205
9.80200 -0.02737
9.80400 -0.03033
9.80600 0.11869
9.80800 0.32407
9.81000 0.90415
9.81200 1.42054
9.81400 1.52037
9.81600 1.10228
9.81800 0.33755
9.82000 0.01019
9.82200 -0.01989
9.82400 -0.01564
9.82600 0.03748
9.82800 -0.00066
9.83000 -0.01995
9.83200 -0.07647
9.83400 -0.06712
9.83600 -0.12465
9.83800 0.02094
9.84000 -0.01439
9.84200 0.06791
9.84400 -0.01976
9.84600 0.04939
9.84800 -0.03610
9.85000 0.01022
9.85200 0.05180
9.85400 -0.05424
9.85600 -0.04001
9.85800 -0.06754
9.86000 0.04169
9.86200 -0.03704
9.86400 -0.01841
9.86600 -0.05641
9.86800 0.03243
9.87000 0.04116
9.87200 -0.03118
9.87400 -0.01311
9.87600 -0.01530
9.87800 0.00917
9.88000 -0.06728
9.88200 0.03049
9.88400 0.01957
9.88600 -0.02553
9.88800 0.00981
9.89000 -0.04318
9.89200 0.09923
9.89400 -0.02324
9.89600 -0.03933
9.89800 0.01145
9.90000 0.02341
9.90200 -0.12307
9.90400 0.02252
9.90600 -0.06637
9.90800 -0.10020
9.91000 0.03931
9.91200 0.02240
9.91400 0.02558
9.91600 -0.06030
9.91800 0.05028
9.92000 -0.02195
9.92200 0.01458
9.92400 -0.09435
9.92600 0.09170
9.92800 -0.00160
9.93000 -0.03293
9.93200 0.05692
9.93400 -0.04638
9.93600 0.00299
9.93800 0.09678
9.94000 0.01534
9.94200 -0.07524
9.94400 0.02180
9.94600 -0.09928
9.94800 -0.03414
9.95000 0.14566
9.95200 -0.09052
9.95400 0.04163
9.95600 0.00126
9.95800 -0.04059
9.96000 -0.01391
9.96200 -0.01454
9.96400 -0.10423
9.96600 0.08054
9.96800 0.02397
9.97000 -0.10516
9.97200 -0.04873
9.97400 0.01854
9.97600 0.03553
9.97800 0.11003
9.98000 0.03626
9.98200 -0.03479
9.98400 -0.00388
9.98600 -0.00240
9.98800 0.02428
9.99000 -0.00022
9.99200 0.12946
9.99400 -0.08437
9.99600 -0.03277
9.99800 0.03145
