cas[s]  ekg[mV]
0.00000 0.00705
0.00200 0.00118
0.00400 -0.08184
0.00600 -0.01541
0.00800 0.01873
0.01000 0.06474
0.01200 -0.12067
0.01400 -0.02569
0.01600 0.01666
0.01800 0.06927
0.02000 -0.01382
0.02200 -0.06147
0.02400 -0.00991
0.02600 0.03139
0.02800 -0.09359
0.03000 -0.07410
0.03200 0.03915
0.03400 0.03731
0.03600 -0.06642
0.03800 -0.08288
0.04000 -0.08794
0.04200 0.02856
0.04400 0.09989
0.04600 -0.02525
0.04800 -0.05264
0.05000 0.07797
0.05200 -0.08124
0.05400 -0.02143
0.05600 -0.00249
0.05800 -0.00676
0.06000 0.04427
0.06200 -0.07905
0.06400 -0.01267
0.06600 0.08812
0.06800 -0.03942
0.07000 -0.03749
0.07200 -0.09448
0.07400 0.09204
0.07600 -0.00905
0.07800 0.08591
0.08000 0.07966
0.08200 -0.01474
0.08400 0.00984
0.08600 0.11848
0.08800 -0.07209
0.09000 0.05906
0.09200 0.00711
0.09400 0.00386
0.09600 -0.04557
0.09800 0.00063
0.10000 -0.10557
0.10200 -0.06653
0.10400 0.05026
0.10600 0.03325
0.10800 -0.04581
0.11000 0.00940
0.11200 -0.06621
0.11400 -0.12713
0.11600 -0.07436
0.11800 0.06664
0.12000 0.02971
0.12200 0.01676
0.12400 0.07111
0.12600 0.08693
0.12800 -0.09966
0.13000 0.00662
0.13200 0.02062
0.13400 0.08601
0.13600 0.07866
0.13800 0.02500
0.14000 -0.05416
0.14200 0.07285
0.14400 0.01154
0.14600 -0.02190
0.14800 0.13202
0.15000 -0.01660
0.15200 -0.04236
0.15400 -0.00229
0.15600 -0.00429
0.15800 0.04053
0.16000 -0.01701
0.16200 0.01331
0.16400 0.05821
0.16600 0.03737
0.16800 0.02546
0.17000 0.06917
0.17200 -0.09187
0.17400 0.01268
0.17600 0.00603
0.17800 -0.02949
0.18000 0.02707
0.18200 -0.01309
0.18400 -0.01502
0.18600 0.02437
0.18800 -0.08656
0.19000 0.01152
0.19200 0.08006
0.19400 0.02735
0.19600 -0.04075
0.19800 -0.06889
0.20000 -0.06429
0.20200 0.05322
0.20400 -0.00833
0.20600 0.02772
0.20800 0.09371
0.21000 0.08973
0.21200 0.05937
0.21400 -0.03145
0.21600 -0.09808
0.21800 0.05613
0.22000 0.00028
0.22200 -0.15013
0.22400 -0.03634
0.22600 0.06576
0.22800 -0.07674
0.23000 0.01955
0.23200 0.02461
0.23400 0.04616
0.23600 0.05614
0.23800 0.06265
0.24000 0.06112
0.24200 0.02651
0.24400 -0.04809
0.24600 -0.00837
0.24800 0.07309
0.25000 -0.05553
0.25200 -0.01200
0.25400 -0.04472
0.25600 -0.02703
0.25800 0.07648
0.26000 -0.01383
0.26200 -0.07191
0.26400 -0.00043
0.26600 0.07270
0.26800 -0.07369
0.27000 -0.01238
0.27200 0.00587
0.27400 -0.05488
0.27600 -0.05731
0.27800 0.00498
0.28000 -0.01895
0.28200 0.06208
0.28400 -0.04039
0.28600 -0.11914
0.28800 0.03600
0.29000 0.02791
0.29200 0.02034
0.29400 0.00867
0.29600 -0.00341
0.29800 0.08742
0.30000 0.23443
0.30200 0.54296
0.30400 1.17478
0.30600 1.38897
0.30800 1.33575
0.31000 0.75659
0.31200 0.19995
0.31400 0.07726
0.31600 0.03700
0.31800 -0.07090
0.32000 -0.07404
0.32200 0.01844
0.32400 0.01697
0.32600 -0.02378
0.32800 -0.08282
0.33000 0.00465
0.33200 0.00782
0.33400 -0.04130
0.33600 -0.09518
0.33800 0.00522
0.34000 -0.04283
0.34200 -0.03776
0.34400 -0.00159
0.34600 -0.02333
0.34800 -0.01715
0.35000 -0.05776
0.35200 -0.03247
0.35400 -0.06786
0.35600 0.02160
0.35800 0.02025
0.36000 -0.09259
0.36200 -0.05545
0.36400 -0.11483
0.36600 0.01526
0.36800 -0.00566
0.37000 0.00390
0.37200 0.03768
0.37400 -0.00031
0.37600 -0.07372
0.37800 0.09986
0.38000 -0.12518
0.38200 -0.05121
0.38400 0.00125
0.38600 0.01224
0.38800 0.06411
0.39000 0.03654
0.39200 -0.00910
0.39400 0.07478
0.39600 0.03880
0.39800 0.06838
0.40000 0.04759
0.40200 -0.02026
0.40400 0.00494
0.40600 0.04930
0.40800 -0.04261
0.41000 0.11128
0.41200 0.06055
0.41400 -0.06254
0.41600 0.00999
0.41800 0.08345
0.42000 -0.04228
0.42200 0.02472
0.42400 -0.03117
0.42600 -0.00548
0.42800 -0.05471
0.43000 0.00949
0.43200 -0.17137
0.43400 0.00139
0.43600 -0.07541
0.43800 0.02883
0.44000 -0.14762
0.44200 -0.00386
0.44400 0.05586
0.44600 0.00852
0.44800 -0.00784
0.45000 -0.02944
0.45200 0.01171
0.45400 0.06627
0.45600 -0.00347
0.45800 0.03294
0.46000 0.05378
0.46200 -0.00035
0.46400 0.06865
0.46600 0.05955
0.46800 0.03612
0.47000 -0.03348
0.47200 0.05080
0.47400 -0.06917
0.47600 -0.02708
0.47800 -0.14047
0.48000 0.00590
0.48200 0.01481
0.48400 -0.06814
0.48600 -0.09423
0.48800 -0.00545
0.49000 0.07240
0.49200 0.05291
0.49400 -0.06402
0.49600 0.12006
0.49800 0.11349
0.50000 -0.02096
0.50200 0.15332
0.50400 -0.01571
0.50600 -0.04217
0.50800 0.05268
0.51000 -0.00237
0.51200 -0.08848
0.51400 -0.04145
0.51600 -0.01560
0.51800 0.00506
0.52000 -0.00693
0.52200 0.05203
0.52400 -0.04003
0.52600 -0.00806
0.52800 0.05344
0.53000 -0.00501
0.53200 -0.01533
0.53400 -0.03726
0.53600 -0.01892
0.53800 -0.05706
0.54000 0.05229
0.54200 -0.01890
0.54400 -0.08474
0.54600 0.02508
0.54800 -0.00729
0.55000 0.06649
0.55200 -0.12031
0.55400 0.07418
0.55600 -0.08092
0.55800 0.01523
0.56000 0.05394
0.56200 0.08322
0.56400 -0.00381
0.56600 -0.02698
0.56800 0.05050
0.57000 0.01601
0.57200 0.03178
0.57400 -0.01735
0.57600 0.00276
0.57800 0.08985
0.58000 -0.10312
0.58200 -0.05531
0.58400 0.00081
0.58600 -0.01624
0.58800 -0.01306
0.59000 -0.02386
0.59200 -0.07458
0.59400 0.01037
0.59600 -0.01202
0.59800 -0.05556
0.60000 0.03864
0.60200 -0.06507
0.60400 0.14216
0.60600 -0.00639
0.60800 -0.05045
0.61000 0.13348
0.61200 0.01667
0.61400 -0.09267
0.61600 0.02480
0.61800 0.08665
0.62000 0.00794
0.62200 -0.01538
0.62400 -0.04128
0.62600 0.05959
0.62800 0.11024
0.63000 0.13866
0.63200 0.10742
0.63400 -0.01713
0.63600 0.03188
0.63800 0.02283
0.64000 -0.05994
0.64200 0.01432
0.64400 -0.00768
0.64600 0.11133
0.64800 -0.07356
0.65000 -0.01301
0.65200 -0.00233
0.65400 -0.04049
0.65600 0.08091
0.65800 0.01217
0.66000 -0.00007
0.66200 0.00401
0.66400 -0.03078
0.66600 0.06105
0.66800 -0.07825
0.67000 0.05644
0.67200 0.07456
0.67400 -0.03282
0.67600 0.03479
0.67800 -0.03505
0.68000 0.10374
0.68200 -0.05395
0.68400 -0.03540
0.68600 -0.06638
0.68800 0.01285
0.69000 0.07293
0.69200 -0.05983
0.69400 0.01228
0.69600 0.13222
0.69800 0.00043
0.70000 -0.03914
0.70200 0.08425
0.70400 0.04854
0.70600 0.01129
0.70800 -0.08274
0.71000 0.02400
0.71200 -0.08622
0.71400 0.01941
0.71600 -0.01444
0.71800 -0.13425
0.72000 0.06402
0.72200 0.12626
0.72400 0.02212
0.72600 -0.01506
0.72800 0.00711
0.73000 0.08220
0.73200 0.04400
0.73400 -0.10986
0.73600 -0.03032
0.73800 0.00162
0.74000 -0.03505
0.74200 -0.03040
0.74400 -0.01533
0.74600 -0.05098
0.74800 -0.01914
0.75000 -0.09958
0.75200 -0.06553
0.75400 -0.08694
0.75600 0.00843
0.75800 -0.05754
0.76000 -0.03216
0.76200 0.02408
0.76400 0.00599
0.76600 -0.00657
0.76800 0.12444
0.77000 -0.01068
0.77200 0.09220
0.77400 -0.01102
0.77600 0.16734
0.77800 -0.08118
0.78000 0.00151
0.78200 -0.07307
0.78400 0.05201
0.78600 0.00466
0.78800 0.09468
0.79000 0.03227
0.79200 0.04298
0.79400 0.01772
0.79600 0.02598
0.79800 0.12346
0.80000 -0.03687
0.80200 -0.04652
0.80400 -0.01770
0.80600 -0.10632
0.80800 0.02392
0.81000 -0.12403
0.81200 0.03362
0.81400 -0.08878
0.81600 -0.01221
0.81800 -0.03102
0.82000 0.03341
0.82200 -0.00408
0.82400 -0.06809
0.82600 0.03135
0.82800 0.00964
0.83000 -0.03183
0.83200 -0.04343
0.83400 0.10644
0.83600 0.08857
0.83800 -0.04347
0.84000 0.06682
0.84200 -0.01107
0.84400 0.06764
0.84600 -0.07528
0.84800 0.01650
0.85000 0.05149
0.85200 0.01036
0.85400 0.13396
0.85600 0.05896
0.85800 -0.02239
0.86000 0.02983
0.86200 0.00882
0.86400 -0.07402
0.86600 0.01299
0.86800 -0.01249
0.87000 -0.06290
0.87200 -0.05894
0.87400 -0.00893
0.87600 0.04203
0.87800 0.01829
0.88000 -0.04027
0.88200 0.00764
0.88400 -0.04089
0.88600 -0.02815
0.88800 0.00052
0.89000 -0.03675
0.89200 0.04787
0.89400 0.00015
0.89600 0.05385
0.89800 -0.03498
0.90000 -0.00985
0.90200 0.13441
0.90400 0.04927
0.90600 0.09324
0.90800 0.14717
0.91000 0.11197
0.91200 0.14010
0.91400 0.46433
0.91600 1.08141
0.91800 1.55968
0.92000 1.22163
0.92200 0.79339
0.92400 0.08961
0.92600 0.04480
0.92800 0.01223
0.93000 -0.00716
0.93200 -0.05299
0.93400 -0.05511
0.93600 0.03140
0.93800 -0.03083
0.94000 0.02084
0.94200 0.03937
0.94400 -0.02762
0.94600 -0.06960
0.94800 0.09609
0.95000 -0.04360
0.95200 0.01123
0.95400 0.01583
0.95600 0.00434
0.95800 -0.00420
0.96000 0.01040
0.96200 0.01018
0.96400 0.01936
0.96600 0.00603
0.96800 0.02099
0.97000 0.03393
0.97200 -0.03062
0.97400 -0.03197
0.97600 0.04220
0.97800 -0.01745
0.98000 0.08550
0.98200 0.07648
0.98400 0.17451
0.98600 -0.04519
0.98800 0.04300
0.99000 -0.02651
0.99200 0.11120
0.99400 0.00634
0.99600 -0.00856
0.99800 -0.01636
1.00000 -0.02674
1.00200 -0.00693
1.00400 0.03807
1.00600 -0.07872
1.00800 -0.02429
1.01000 -0.01684
1.01200 -0.01746
1.01400 -0.00722
1.01600 0.11804
1.01800 -0.00241
1.02000 -0.01928
1.02200 0.09843
1.02400 0.11439
1.02600 0.02623
1.02800 -0.03554
1.03000 -0.00953
1.03200 0.00924
1.03400 -0.07678
1.03600 -0.08792
1.03800 0.03089
1.04000 -0.11800
1.04200 -0.02260
1.04400 -0.02416
1.04600 0.02151
1.04800 -0.03576
1.05000 -0.05096
1.05200 -0.03839
1.05400 -0.01647
1.05600 0.01855
1.05800 0.03742
1.06000 -0.07249
1.06200 0.02937
1.06400 -0.02351
1.06600 -0.01765
1.06800 -0.14201
1.07000 -0.02909
1.07200 -0.02253
1.07400 -0.03422
1.07600 0.06819
1.07800 -0.04903
1.08000 0.02370
1.08200 -0.04944
1.08400 -0.04923
1.08600 0.08566
1.08800 0.05057
1.09000 0.08310
1.09200 -0.01157
1.09400 0.00802
1.09600 0.07942
1.09800 -0.10206
1.10000 0.03594
1.10200 -0.07547
1.10400 -0.04490
1.10600 -0.06346
1.10800 -0.06154
1.11000 -0.07092
1.11200 -0.06695
1.11400 -0.04519
1.11600 -0.02830
1.11800 -0.06802
1.12000 -0.05336
1.12200 0.01192
1.12400 0.00892
1.12600 -0.06093
1.12800 -0.07152
1.13000 -0.00222
1.13200 0.01445
1.13400 -0.02070
1.13600 -0.01129
1.13800 0.02166
1.14000 0.02780
1.14200 0.00522
1.14400 0.01563
1.14600 -0.02405
1.14800 -0.00034
1.15000 0.13226
1.15200 -0.03888
1.15400 -0.09457
1.15600 -0.08960
1.15800 -0.02916
1.16000 -0.01606
1.16200 0.09441
1.16400 0.00483
1.16600 0.07537
1.16800 -0.05193
1.17000 0.03740
1.17200 0.07396
1.17400 -0.00211
1.17600 -0.13945
1.17800 -0.02310
1.18000 -0.02148
1.18200 -0.06096
1.18400 0.02166
1.18600 -0.05333
1.18800 0.11766
1.19000 -0.04033
1.19200 0.01369
1.19400 -0.04788
1.19600 -0.05430
1.19800 0.04596
1.20000 -0.09948
1.20200 0.04377
1.20400 -0.05536
1.20600 -0.08435
1.20800 0.01019
1.21000 0.07955
1.21200 0.04030
1.21400 0.07037
1.21600 0.02367
1.21800 -0.08712
1.22000 0.05714
1.22200 0.00522
1.22400 0.01815
1.22600 0.06154
1.22800 -0.05405
1.23000 -0.05446
1.23200 -0.01597
1.23400 0.03245
1.23600 0.02158
1.23800 0.06248
1.24000 -0.00988
1.24200 0.07843
1.24400 -0.05563
1.24600 0.03999
1.24800 0.02813
1.25000 -0.06879
1.25200 -0.03753
1.25400 -0.00556
1.25600 -0.01236
1.25800 -0.00138
1.26000 0.00588
1.26200 0.04590
1.26400 0.11148
1.26600 -0.08280
1.26800 0.01451
1.27000 -0.08286
1.27200 0.00794
1.27400 -0.01734
1.27600 -0.10208
1.27800 0.11126
1.28000 0.07029
1.28200 -0.02762
1.28400 0.02595
1.28600 0.07905
1.28800 0.11767
1.29000 -0.05019
1.29200 -0.06771
1.29400 0.06234
1.29600 0.01004
1.29800 0.02163
1.30000 0.16112
1.30200 0.01383
1.30400 -0.07347
1.30600 -0.11509
1.30800 0.10880
1.31000 0.03723
1.31200 -0.04734
1.31400 0.04438
1.31600 0.13728
1.31800 -0.05716
1.32000 -0.10118
1.32200 -0.05349
1.32400 0.05379
1.32600 0.04382
1.32800 0.07816
1.33000 0.02597
1.33200 -0.01731
1.33400 0.04480
1.33600 0.06240
1.33800 -0.00191
1.34000 -0.02070
1.34200 0.04995
1.34400 -0.06821
1.34600 -0.04929
1.34800 -0.02316
1.35000 0.08445
1.35200 -0.04941
1.35400 0.00622
1.35600 0.05166
1.35800 0.11902
1.36000 -0.00248
1.36200 -0.04070
1.36400 0.03190
1.36600 0.12171
1.36800 -0.05636
1.37000 0.02185
1.37200 -0.08959
1.37400 -0.01083
1.37600 -0.11701
1.37800 0.03559
1.38000 -0.02392
1.38200 0.06508
1.38400 -0.03125
1.38600 0.07860
1.38800 0.06873
1.39000 0.01442
1.39200 0.09067
1.39400 -0.04147
1.39600 0.13045
1.39800 -0.02780
1.40000 0.03664
1.40200 0.06262
1.40400 0.00705
1.40600 -0.03475
1.40800 -0.14214
1.41000 -0.13117
1.41200 0.03050
1.41400 -0.06681
1.41600 -0.05477
1.41800 0.08559
1.42000 0.11031
1.42200 -0.06703
1.42400 0.03638
1.42600 -0.00309
1.42800 -0.08318
1.43000 0.17342
1.43200 -0.00768
1.43400 0.07678
1.43600 0.01839
1.43800 0.01960
1.44000 0.00373
1.44200 -0.12882
1.44400 -0.07976
1.44600 -0.02285
1.44800 -0.01190
1.45000 -0.05994
1.45200 0.04536
1.45400 0.02917
1.45600 -0.01657
1.45800 -0.07337
1.46000 -0.00880
1.46200 0.03171
1.46400 -0.10857
1.46600 -0.06086
1.46800 -0.04528
1.47000 -0.02947
1.47200 -0.02132
1.47400 -0.08132
1.47600 0.00445
1.47800 -0.01812
1.48000 -0.01469
1.48200 0.01195
1.48400 0.06244
1.48600 0.02357
1.48800 0.11393
1.49000 0.11256
1.49200 0.00277
1.49400 -0.00417
1.49600 -0.00581
1.49800 0.02029
1.50000 -0.00012
1.50200 -0.06371
1.50400 0.07925
1.50600 0.04315
1.50800 -0.00179
1.51000 -0.04678
1.51200 0.03774
1.51400 -0.01788
1.51600 -0.00325
1.51800 -0.02196
1.52000 0.09737
1.52200 -0.01339
1.52400 0.12665
1.52600 0.46236
1.52800 1.08696
1.53000 1.43966
1.53200 1.36951
1.53400 0.77597
1.53600 0.28614
1.53800 0.18933
1.54000 0.12265
1.54200 0.10640
1.54400 0.04019
1.54600 0.00745
1.54800 -0.01493
1.55000 0.03846
1.55200 0.02020
1.55400 0.06051
1.55600 -0.05303
1.55800 0.02624
1.56000 -0.04767
1.56200 -0.13587
1.56400 0.05626
1.56600 0.02695
1.56800 -0.00463
1.57000 -0.08340
1.57200 0.01227
1.57400 -0.03396
1.57600 -0.15935
1.57800 -0.02095
1.58000 0.03878
1.58200 -0.01664
1.58400 0.08641
1.58600 -0.01422
1.58800 -0.02555
1.59000 0.00360
1.59200 0.04498
1.59400 -0.02684
1.59600 -0.04034
1.59800 0.01558
1.60000 -0.02542
1.60200 -0.05369
1.60400 -0.01221
1.60600 0.01203
1.60800 -0.03160
1.61000 0.09699
1.61200 -0.03668
1.61400 0.02772
1.61600 -0.00159
1.61800 0.05984
1.62000 -0.01389
1.62200 0.00182
1.62400 -0.04214
1.62600 0.01678
1.62800 0.02965
1.63000 -0.05101
1.63200 -0.00564
1.63400 -0.02833
1.63600 -0.00547
1.63800 0.08607
1.64000 0.04310
1.64200 -0.04520
1.64400 -0.07657
1.64600 0.06412
1.64800 0.00648
1.65000 -0.02139
1.65200 -0.00711
1.65400 0.06626
1.65600 -0.06906
1.65800 0.03299
1.66000 -0.03514
1.66200 0.05484
1.66400 -0.03298
1.66600 -0.11834
1.66800 0.05185
1.67000 -0.05567
1.67200 -0.04625
1.67400 -0.04677
1.67600 -0.06256
1.67800 -0.09788
1.68000 0.03094
1.68200 0.07529
1.68400 -0.09515
1.68600 -0.02685
1.68800 -0.09638
1.69000 0.07604
1.69200 -0.03699
1.69400 0.04744
1.69600 0.04433
1.69800 -0.05256
1.70000 0.00781
1.70200 0.01122
1.70400 -0.05255
1.70600 0.00684
1.70800 -0.01888
1.71000 -0.00877
1.71200 -0.01112
1.71400 -0.00331
1.71600 0.01015
1.71800 0.03434
1.72000 -0.13340
1.72200 0.01137
1.72400 0.09053
1.72600 0.04205
1.72800 -0.12966
1.73000 -0.15006
1.73200 -0.08334
1.73400 -0.00986
1.73600 -0.09669
1.73800 -0.00187
1.74000 -0.04887
1.74200 -0.01405
1.74400 -0.00683
1.74600 -0.04830
1.74800 -0.05717
1.75000 -0.01649
1.75200 0.03228
1.75400 0.08780
1.75600 0.00151
1.75800 0.12727
1.76000 -0.04885
1.76200 0.02046
1.76400 -0.02686
1.76600 0.02212
1.76800 -0.03518
1.77000 0.05503
1.77200 0.01832
1.77400 -0.01811
1.77600 -0.11336
1.77800 -0.00531
1.78000 -0.08123
1.78200 -0.02804
1.78400 -0.01397
1.78600 0.07569
1.78800 -0.06583
1.79000 0.00969
1.79200 -0.04880
1.79400 -0.02593
1.79600 0.00412
1.79800 -0.03744
1.80000 -0.00601
1.80200 -0.05978
1.80400 0.03398
1.80600 0.07277
1.80800 -0.02303
1.81000 -0.02692
1.81200 -0.02850
1.81400 -0.02466
1.81600 -0.16107
1.81800 -0.09509
1.82000 0.03306
1.82200 0.07166
1.82400 -0.08041
1.82600 -0.01697
1.82800 0.04232
1.83000 0.04515
1.83200 -0.03145
1.83400 -0.01400
1.83600 0.07048
1.83800 0.00433
1.84000 0.00299
1.84200 -0.03549
1.84400 -0.00815
1.84600 0.02803
1.84800 0.11198
1.85000 0.02573
1.85200 0.04429
1.85400 0.01354
1.85600 -0.12282
1.85800 -0.06707
1.86000 -0.08874
1.86200 0.02087
1.86400 0.07806
1.86600 -0.00989
1.86800 -0.08271
1.87000 0.00094
1.87200 -0.02353
1.87400 -0.07811
1.87600 -0.04276
1.87800 -0.03549
1.88000 0.01133
1.88200 -0.13396
1.88400 -0.00139
1.88600 0.00048
1.88800 -0.09071
1.89000 -0.09743
1.89200 0.03353
1.89400 -0.13229
1.89600 -0.06410
1.89800 -0.02719
1.90000 -0.03158
1.90200 0.03636
1.90400 -0.09273
1.90600 -0.00330
1.90800 -0.10485
1.91000 -0.10167
1.91200 0.01277
1.91400 0.04293
1.91600 0.02386
1.91800 0.06918
1.92000 0.08407
1.92200 -0.03449
1.92400 0.01086
1.92600 -0.07314
1.92800 0.00340
1.93000 -0.01697
1.93200 0.00857
1.93400 -0.03199
1.93600 0.04931
1.93800 -0.03527
1.94000 0.04801
1.94200 -0.01404
1.94400 -0.05661
1.94600 0.00556
1.94800 0.02238
1.95000 -0.06560
1.95200 -0.08022
1.95400 -0.02407
1.95600 0.12930
1.95800 0.00861
1.96000 0.03330
1.96200 0.03695
1.96400 0.09880
1.96600 -0.09881
1.96800 -0.16683
1.97000 -0.10081
1.97200 0.07692
1.97400 0.07956
1.97600 -0.08469
1.97800 -0.11021
1.98000 0.01555
1.98200 0.01493
1.98400 -0.11425
1.98600 -0.04121
1.98800 -0.02549
1.99000 0.02376
1.99200 0.04246
1.99400 0.11359
1.99600 0.00102
1.99800 0.06542
2.00000 -0.12072
2.00200 -0.03041
2.00400 -0.05953
2.00600 -0.06505
2.00800 -0.09238
2.01000 0.02266
2.01200 -0.03681
2.01400 0.02209
2.01600 -0.02465
2.01800 0.06978
2.02000 0.00708
2.02200 0.05148
2.02400 0.01209
2.02600 0.02074
2.02800 0.00861
2.03000 0.08922
2.03200 0.02119
2.03400 -0.07681
2.03600 0.00148
2.03800 0.06023
2.04000 0.11451
2.04200 0.03728
2.04400 0.04720
2.04600 -0.00423
2.04800 -0.10839
2.05000 -0.00420
2.05200 -0.03343
2.05400 -0.12401
2.05600 -0.02881
2.05800 0.01354
2.06000 0.09003
2.06200 -0.06077
2.06400 -0.00326
2.06600 -0.01617
2.06800 -0.00124
2.07000 -0.00492
2.07200 -0.10149
2.07400 0.03197
2.07600 -0.08656
2.07800 -0.03257
2.08000 -0.02029
2.08200 0.05521
2.08400 -0.00477
2.08600 0.16149
2.08800 0.00345
2.09000 -0.02035
2.09200 0.00173
2.09400 0.01505
2.09600 -0.04722
2.09800 0.05227
2.10000 0.01685
2.10200 0.01129
2.10400 0.09728
2.10600 -0.07116
2.10800 -0.02246
2.11000 -0.03557
2.11200 0.04556
2.11400 0.03840
2.11600 0.06157
2.11800 -0.01107
2.12000 0.05205
2.12200 -0.19896
2.12400 -0.13383
2.12600 -0.01303
2.12800 -0.02728
2.13000 -0.03334
2.13200 0.10141
2.13400 -0.03342
2.13600 -0.00030
2.13800 0.47959
2.14000 1.04848
2.14200 1.45598
2.14400 1.45563
2.14600 0.87199
2.14800 0.41059
2.15000 -0.01104
2.15200 -0.01442
2.15400 0.03118
2.15600 -0.00879
2.15800 -0.05783
2.16000 -0.00397
2.16200 -0.05480
2.16400 0.08862
2.16600 -0.00285
2.16800 0.04476
2.17000 0.05199
2.17200 0.10863
2.17400 0.01663
2.17600 -0.03875
2.17800 0.03056
2.18000 0.02804
2.18200 -0.02059
2.18400 -0.04404
2.18600 0.03186
2.18800 -0.08800
2.19000 -0.05890
2.19200 0.01985
2.19400 -0.04136
2.19600 0.14020
2.19800 -0.10030
2.20000 0.00653
2.20200 -0.06188
2.20400 -0.05642
2.20600 -0.11431
2.20800 0.01388
2.21000 -0.06265
2.21200 -0.04748
2.21400 0.05891
2.21600 0.06780
2.21800 0.06280
2.22000 -0.10987
2.22200 -0.02913
2.22400 -0.06062
2.22600 -0.00550
2.22800 -0.07398
2.23000 -0.06002
2.23200 0.01513
2.23400 -0.01536
2.23600 -0.02007
2.23800 -0.00873
2.24000 -0.06460
2.24200 0.03426
2.24400 0.01553
2.24600 0.15598
2.24800 -0.00101
2.25000 0.04398
2.25200 -0.03143
2.25400 0.10466
2.25600 0.07445
2.25800 0.00681
2.26000 0.03814
2.26200 -0.13956
2.26400 0.04449
2.26600 -0.04163
2.26800 0.01537
2.27000 0.02659
2.27200 0.03941
2.27400 -0.03572
2.27600 -0.02583
2.27800 -0.02347
2.28000 -0.13566
2.28200 -0.03559
2.28400 0.00351
2.28600 -0.01268
2.28800 -0.01512
2.29000 0.01036
2.29200 0.03480
2.29400 0.02651
2.29600 -0.02364
2.29800 -0.00157
2.30000 -0.00335
2.30200 0.03381
2.30400 -0.00211
2.30600 0.02093
2.30800 -0.02437
2.31000 -0.08471
2.31200 0.04883
2.31400 0.02526
2.31600 0.11390
2.31800 -0.03804
2.32000 -0.04660
2.32200 -0.05619
2.32400 0.09831
2.32600 0.01636
2.32800 0.01600
2.33000 0.11556
2.33200 -0.05887
2.33400 0.06147
2.33600 0.07606
2.33800 0.04751
2.34000 -0.05505
2.34200 -0.03548
2.34400 -0.04308
2.34600 -0.02298
2.34800 -0.11282
2.35000 0.03447
2.35200 0.03902
2.35400 -0.03207
2.35600 -0.00113
2.35800 -0.05283
2.36000 -0.09024
2.36200 0.08940
2.36400 0.06381
2.36600 -0.12204
2.36800 0.02411
2.37000 0.01573
2.37200 -0.06025
2.37400 0.10345
2.37600 0.06527
2.37800 -0.14869
2.38000 -0.00930
2.38200 0.01949
2.38400 0.05054
2.38600 -0.03188
2.38800 0.00121
2.39000 0.00495
2.39200 0.06581
2.39400 0.01302
2.39600 -0.09232
2.39800 0.00190
2.40000 -0.00261
2.40200 -0.07347
2.40400 0.08436
2.40600 0.05788
2.40800 -0.09885
2.41000 -0.00259
2.41200 0.14932
2.41400 -0.00474
2.41600 0.08616
2.41800 0.00386
2.42000 0.01154
2.42200 -0.05601
2.42400 -0.09728
2.42600 0.04232
2.42800 0.05163
2.43000 -0.04685
2.43200 -0.05382
2.43400 -0.01554
2.43600 0.04110
2.43800 0.00852
2.44000 0.03193
2.44200 -0.08860
2.44400 -0.08116
2.44600 0.04786
2.44800 -0.07816
2.45000 -0.01899
2.45200 0.00818
2.45400 -0.02190
2.45600 0.01752
2.45800 -0.07418
2.46000 -0.03296
2.46200 -0.03329
2.46400 -0.07008
2.46600 -0.12171
2.46800 0.10677
2.47000 0.03918
2.47200 0.06175
2.47400 -0.01845
2.47600 -0.02710
2.47800 0.07928
2.48000 -0.10878
2.48200 -0.00716
2.48400 -0.00822
2.48600 0.03522
2.48800 0.05395
2.49000 -0.05466
2.49200 0.04098
2.49400 0.04091
2.49600 0.02278
2.49800 -0.02226
2.50000 0.02786
2.50200 -0.00081
2.50400 -0.10953
2.50600 -0.05317
2.50800 0.07443
2.51000 0.08570
2.51200 0.08316
2.51400 -0.02950
2.51600 -0.01723
2.51800 0.06256
2.52000 0.00931
2.52200 0.04872
2.52400 0.02812
2.52600 -0.05459
2.52800 -0.01690
2.53000 0.00273
2.53200 0.03341
2.53400 -0.08573
2.53600 -0.04628
2.53800 0.01955
2.54000 0.01233
2.54200 0.04478
2.54400 0.06553
2.54600 0.07066
2.54800 -0.04542
2.55000 0.02050
2.55200 0.05280
2.55400 0.00916
2.55600 0.00397
2.55800 0.09256
2.56000 -0.04770
2.56200 0.02431
2.56400 0.02272
2.56600 0.02111
2.56800 0.03782
2.57000 -0.09110
2.57200 0.02022
2.57400 -0.18512
2.57600 -0.03385
2.57800 0.04104
2.58000 0.06762
2.58200 -0.03895
2.58400 -0.08558
2.58600 0.06409
2.58800 0.02440
2.59000 -0.01892
2.59200 0.03482
2.59400 -0.03690
2.59600 -0.10896
2.59800 0.07011
2.60000 0.00807
2.60200 -0.02080
2.60400 0.01916
2.60600 0.04855
2.60800 -0.06836
2.61000 -0.05763
2.61200 -0.04297
2.61400 -0.05586
2.61600 0.03308
2.61800 0.03323
2.62000 -0.01043
2.62200 0.05743
2.62400 0.08718
2.62600 -0.08658
2.62800 0.02477
2.63000 -0.05173
2.63200 0.05680
2.63400 0.01311
2.63600 0.02036
2.63800 0.02959
2.64000 0.01965
2.64200 0.06064
2.64400 -0.03876
2.64600 -0.01371
2.64800 -0.08707
2.65000 -0.00811
2.65200 -0.05716
2.65400 0.07343
2.65600 -0.09315
2.65800 0.05825
2.66000 0.06778
2.66200 -0.00221
2.66400 -0.05384
2.66600 0.02003
2.66800 0.08553
2.67000 -0.05984
2.67200 0.12599
2.67400 -0.01611
2.67600 -0.06024
2.67800 -0.09664
2.68000 -0.04993
2.68200 -0.00725
2.68400 0.12787
2.68600 0.01455
2.68800 -0.04490
2.69000 0.01206
2.69200 -0.04938
2.69400 0.08396
2.69600 -0.09566
2.69800 0.08462
2.70000 -0.01209
2.70200 -0.01381
2.70400 -0.04770
2.70600 -0.03656
2.70800 -0.14384
2.71000 -0.00092
2.71200 0.04931
2.71400 0.01671
2.71600 0.11725
2.71800 0.07018
2.72000 0.05427
2.72200 -0.04292
2.72400 -0.01237
2.72600 -0.05552
2.72800 0.00477
2.73000 0.00390
2.73200 -0.00309
2.73400 0.01190
2.73600 0.02554
2.73800 0.00457
2.74000 0.01719
2.74200 0.06133
2.74400 0.00116
2.74600 -0.01156
2.74800 0.06123
2.75000 0.35979
2.75200 0.92968
2.75400 1.41788
2.75600 1.44966
2.75800 0.96193
2.76000 0.40947
2.76200 0.12714
2.76400 -0.02506
2.76600 -0.02247
2.76800 0.00511
2.77000 0.11204
2.77200 0.01400
2.77400 0.11199
2.77600 0.08042
2.77800 -0.02246
2.78000 -0.07770
2.78200 -0.05189
2.78400 0.05807
2.78600 0.06879
2.78800 -0.04136
2.79000 0.02689
2.79200 -0.00924
2.79400 0.08886
2.79600 0.08009
2.79800 0.01533
2.80000 0.08884
2.80200 0.03975
2.80400 0.00097
2.80600 0.05626
2.80800 -0.00035
2.81000 0.06381
2.81200 -0.01975
2.81400 -0.04123
2.81600 0.13339
2.81800 -0.02703
2.82000 0.09167
2.82200 -0.12014
2.82400 0.10218
2.82600 0.06711
2.82800 -0.01499
2.83000 0.08132
2.83200 -0.03089
2.83400 0.00244
2.83600 0.03320
2.83800 -0.05718
2.84000 -0.00104
2.84200 0.00499
2.84400 0.01440
2.84600 0.08674
2.84800 -0.07939
2.85000 -0.08200
2.85200 -0.00373
2.85400 0.07427
2.85600 0.02221
2.85800 -0.09705
2.86000 0.05998
2.86200 -0.01003
2.86400 -0.07370
2.86600 0.02851
2.86800 0.00123
2.87000 0.10480
2.87200 0.14461
2.87400 -0.05521
2.87600 0.03596
2.87800 0.02851
2.88000 -0.05890
2.88200 0.02689
2.88400 -0.02122
2.88600 0.04404
2.88800 0.07757
2.89000 -0.03673
2.89200 0.02433
2.89400 -0.04559
2.89600 -0.06352
2.89800 0.04312
2.90000 -0.02230
2.90200 0.05404
2.90400 0.03468
2.90600 -0.15560
2.90800 0.02887
2.91000 -0.03825
2.91200 0.03166
2.91400 -0.08891
2.91600 0.04747
2.91800 0.03089
2.92000 -0.02926
2.92200 -0.06768
2.92400 0.01144
2.92600 0.02845
2.92800 -0.01809
2.93000 0.05938
2.93200 -0.00923
2.93400 -0.00895
2.93600 0.09161
2.93800 0.07337
2.94000 -0.09220
2.94200 0.01126
2.94400 -0.06993
2.94600 0.06606
2.94800 0.05675
2.95000 -0.01530
2.95200 0.16213
2.95400 -0.04291
2.95600 0.00915
2.95800 0.03926
2.96000 0.07181
2.96200 -0.00529
2.96400 0.07524
2.96600 -0.09203
2.96800 0.10129
2.97000 -0.00058
2.97200 -0.03476
2.97400 0.05013
2.97600 -0.02773
2.97800 -0.04659
2.98000 -0.01074
2.98200 0.05075
2.98400 -0.00799
2.98600 -0.02768
2.98800 -0.00759
2.99000 -0.02586
2.99200 -0.03253
2.99400 0.08216
2.99600 -0.01560
2.99800 -0.01256
3.00000 -0.00180
3.00200 0.02143
3.00400 0.04218
3.00600 0.07589
3.00800 -0.02308
3.01000 0.05546
3.01200 -0.09013
3.01400 -0.00968
3.01600 0.07441
3.01800 -0.04807
3.02000 -0.04023
3.02200 -0.05210
3.02400 -0.03607
3.02600 -0.02215
3.02800 -0.04313
3.03000 0.07283
3.03200 -0.03159
3.03400 0.07522
3.03600 0.03189
3.03800 -0.02080
3.04000 -0.02600
3.04200 0.02532
3.04400 0.14488
3.04600 -0.02740
3.04800 -0.10137
3.05000 0.06504
3.05200 0.01397
3.05400 -0.01701
3.05600 -0.18678
3.05800 -0.11131
3.06000 -0.05259
3.06200 -0.13138
3.06400 0.00651
3.06600 -0.00193
3.06800 0.08976
3.07000 0.06994
3.07200 0.01443
3.07400 -0.00489
3.07600 -0.10629
3.07800 0.03079
3.08000 0.07320
3.08200 0.08717
3.08400 0.06630
3.08600 0.03881
3.08800 0.16660
3.09000 -0.03532
3.09200 -0.08513
3.09400 0.04318
3.09600 -0.07258
3.09800 -0.06245
3.10000 0.05663
3.10200 -0.02419
3.10400 -0.00633
3.10600 -0.05213
3.10800 0.04527
3.11000 0.02565
3.11200 0.05429
3.11400 -0.01450
3.11600 -0.05354
3.11800 0.04616
3.12000 0.05191
3.12200 0.00729
3.12400 -0.04623
3.12600 -0.02334
3.12800 0.02032
3.13000 -0.00256
3.13200 -0.12403
3.13400 -0.03714
3.13600 -0.02785
3.13800 0.01322
3.14000 0.00492
3.14200 0.01118
3.14400 0.01724
3.14600 0.00088
3.14800 0.00433
3.15000 -0.03342
3.15200 0.01624
3.15400 -0.03958
3.15600 0.06847
3.15800 0.02853
3.16000 0.10137
3.16200 -0.06034
3.16400 -0.08008
3.16600 -0.02520
3.16800 0.08010
3.17000 -0.01084
3.17200 -0.04452
3.17400 0.04761
3.17600 -0.00748
3.17800 0.03699
3.18000 -0.06013
3.18200 -0.12416
3.18400 0.19475
3.18600 0.01149
3.18800 0.10101
3.19000 0.02978
3.19200 0.04310
3.19400 -0.02969
3.19600 -0.09489
3.19800 -0.00087
3.20000 -0.02588
3.20200 -0.01108
3.20400 0.14005
3.20600 -0.02260
3.20800 -0.01616
3.21000 0.00505
3.21200 0.05202
3.21400 0.03575
3.21600 0.09691
3.21800 0.02000
3.22000 -0.05260
3.22200 -0.05665
3.22400 0.01248
3.22600 -0.00298
3.22800 -0.05529
3.23000 0.08295
3.23200 -0.01180
3.23400 -0.02369
3.23600 0.07146
3.23800 -0.01114
3.24000 0.08554
3.24200 0.08502
3.24400 -0.10722
3.24600 0.06032
3.24800 0.01322
3.25000 0.08669
3.25200 0.10422
3.25400 0.02889
3.25600 -0.12509
3.25800 -0.02438
3.26000 0.05931
3.26200 0.02185
3.26400 0.05710
3.26600 0.04056
3.26800 0.11295
3.27000 0.11372
3.27200 0.04811
3.27400 0.00467
3.27600 0.01265
3.27800 0.00741
3.28000 -0.02631
3.28200 -0.05825
3.28400 -0.04526
3.28600 0.02568
3.28800 -0.05656
3.29000 0.03970
3.29200 -0.05538
3.29400 0.04971
3.29600 0.08924
3.29800 -0.07687
3.30000 0.03325
3.30200 0.05346
3.30400 -0.00844
3.30600 0.00295
3.30800 0.03166
3.31000 0.04786
3.31200 -0.07222
3.31400 0.05272
3.31600 -0.00018
3.31800 0.05977
3.32000 -0.12220
3.32200 0.07464
3.32400 0.00027
3.32600 0.00487
3.32800 0.02856
3.33000 -0.06665
3.33200 -0.06134
3.33400 0.03082
3.33600 0.01671
3.33800 -0.03741
3.34000 -0.04215
3.34200 -0.02456
3.34400 -0.01225
3.34600 0.07215
3.34800 -0.05314
3.35000 -0.03236
3.35200 -0.04056
3.35400 -0.05421
3.35600 0.09821
3.35800 0.11638
3.36000 0.04150
3.36200 0.30506
3.36400 0.85365
3.36600 1.37463
3.36800 1.41703
3.37000 1.02670
3.37200 0.45722
3.37400 0.17832
3.37600 -0.01314
3.37800 0.02750
3.38000 0.09861
3.38200 0.04946
3.38400 0.08129
3.38600 0.06665
3.38800 0.02741
3.39000 -0.01148
3.39200 0.02136
3.39400 0.04738
3.39600 0.03519
3.39800 -0.00408
3.40000 -0.02210
3.40200 0.01735
3.40400 -0.05081
3.40600 0.08490
3.40800 -0.00064
3.41000 -0.00562
3.41200 -0.02969
3.41400 -0.02811
3.41600 0.02931
3.41800 -0.01392
3.42000 -0.02336
3.42200 0.03570
3.42400 -0.11151
3.42600 0.07824
3.42800 -0.02450
3.43000 0.03442
3.43200 -0.03642
3.43400 0.04896
3.43600 -0.03152
3.43800 -0.00638
3.44000 -0.03742
3.44200 -0.00593
3.44400 -0.06659
3.44600 -0.05513
3.44800 0.09418
3.45000 -0.01819
3.45200 -0.01016
3.45400 0.01419
3.45600 -0.00660
3.45800 -0.00457
3.46000 -0.03816
3.46200 0.09112
3.46400 0.02061
3.46600 0.05207
3.46800 0.02464
3.47000 0.12511
3.47200 0.02942
3.47400 -0.01712
3.47600 -0.02988
3.47800 0.11659
3.48000 0.12135
3.48200 -0.05810
3.48400 0.06529
3.48600 -0.01637
3.48800 0.00899
3.49000 -0.04008
3.49200 0.10410
3.49400 -0.07994
3.49600 0.02401
3.49800 -0.05398
3.50000 -0.03673
3.50200 -0.10718
3.50400 -0.00903
3.50600 -0.02765
3.50800 -0.06533
3.51000 0.08030
3.51200 -0.04740
3.51400 0.06833
3.51600 0.03040
3.51800 -0.02874
3.52000 -0.03261
3.52200 0.03834
3.52400 0.04062
3.52600 0.00874
3.52800 0.00567
3.53000 -0.03046
3.53200 0.10618
3.53400 0.03446
3.53600 -0.02562
3.53800 0.02978
3.54000 0.03959
3.54200 -0.03874
3.54400 -0.12465
3.54600 -0.00483
3.54800 -0.02630
3.55000 -0.03172
3.55200 0.05231
3.55400 0.07787
3.55600 0.10517
3.55800 0.01027
3.56000 0.06372
3.56200 -0.02060
3.56400 0.01490
3.56600 -0.00723
3.56800 0.02633
3.57000 0.01502
3.57200 0.03522
3.57400 0.06988
3.57600 -0.00744
3.57800 -0.01705
3.58000 0.07555
3.58200 0.00964
3.58400 -0.01397
3.58600 -0.03490
3.58800 0.03904
3.59000 -0.04048
3.59200 0.00048
3.59400 -0.10137
3.59600 -0.08329
3.59800 -0.00136
3.60000 -0.07274
3.60200 0.00345
3.60400 0.05848
3.60600 0.00147
3.60800 -0.06180
3.61000 -0.02786
3.61200 0.04892
3.61400 -0.06343
3.61600 -0.05232
3.61800 -0.01008
3.62000 -0.05012
3.62200 0.06918
3.62400 -0.02644
3.62600 -0.01264
3.62800 -0.00510
3.63000 0.07507
3.63200 -0.02430
3.63400 -0.08625
3.63600 0.01440
3.63800 0.02719
3.64000 0.06783
3.64200 0.03653
3.64400 -0.07226
3.64600 0.08064
3.64800 -0.06800
3.65000 0.01824
3.65200 -0.08826
3.65400 -0.03325
3.65600 -0.06296
3.65800 -0.04664
3.66000 0.00578
3.66200 0.06539
3.66400 -0.01613
3.66600 -0.00006
3.66800 -0.04965
3.67000 0.03588
3.67200 -0.00157
3.67400 -0.00321
3.67600 0.06341
3.67800 -0.01058
3.68000 0.01017
3.68200 -0.03983
3.68400 -0.05667
3.68600 0.11124
3.68800 -0.02451
3.69000 0.05881
3.69200 -0.03390
3.69400 0.12474
3.69600 0.01387
3.69800 -0.02203
3.70000 -0.04200
3.70200 0.05478
3.70400 0.01682
3.70600 -0.02136
3.70800 -0.05919
3.71000 0.06646
3.71200 -0.00947
3.71400 -0.07303
3.71600 -0.02138
3.71800 -0.04109
3.72000 -0.05898
3.72200 0.03080
3.72400 -0.04972
3.72600 0.08382
3.72800 -0.08452
3.73000 0.04416
3.73200 0.04009
3.73400 0.05638
3.73600 0.00740
3.73800 0.03564
3.74000 0.02028
3.74200 0.06183
3.74400 -0.01197
3.74600 -0.00816
3.74800 0.05390
3.75000 -0.01114
3.75200 0.09017
3.75400 -0.03588
3.75600 0.01699
3.75800 0.04944
3.76000 0.02890
3.76200 0.02981
3.76400 -0.02899
3.76600 0.00743
3.76800 0.04277
3.77000 -0.08414
3.77200 0.00393
3.77400 0.03955
3.77600 -0.07874
3.77800 0.00500
3.78000 0.00597
3.78200 0.06845
3.78400 0.07044
3.78600 0.06663
3.78800 0.03195
3.79000 0.04517
3.79200 0.07103
3.79400 0.05488
3.79600 0.00312
3.79800 -0.05270
3.80000 0.10453
3.80200 0.06491
3.80400 0.07042
3.80600 0.06937
3.80800 -0.04312
3.81000 -0.04106
3.81200 0.07381
3.81400 -0.00080
3.81600 -0.00804
3.81800 0.10545
3.82000 -0.01306
3.82200 0.03239
3.82400 -0.12010
3.82600 0.04239
3.82800 -0.09273
3.83000 0.00308
3.83200 0.04960
3.83400 0.06320
3.83600 -0.05970
3.83800 -0.15195
3.84000 -0.02583
3.84200 -0.05864
3.84400 -0.02847
3.84600 0.09466
3.84800 0.03620
3.85000 -0.09563
3.85200 -0.01055
3.85400 0.08599
3.85600 -0.02885
3.85800 -0.02082
3.86000 -0.08340
3.86200 0.03738
3.86400 -0.00507
3.86600 0.08662
3.86800 0.02427
3.87000 0.13729
3.87200 0.12801
3.87400 0.02261
3.87600 -0.04879
3.87800 -0.06421
3.88000 -0.05300
3.88200 0.07163
3.88400 0.05120
3.88600 -0.05421
3.88800 -0.02842
3.89000 -0.01175
3.89200 0.13482
3.89400 -0.03498
3.89600 -0.00507
3.89800 0.00354
3.90000 -0.03483
3.90200 -0.07206
3.90400 -0.10211
3.90600 -0.01386
3.90800 0.06714
3.91000 -0.04347
3.91200 -0.02097
3.91400 -0.06319
3.91600 -0.01888
3.91800 -0.04533
3.92000 -0.06627
3.92200 0.06829
3.92400 0.05211
3.92600 0.04029
3.92800 -0.01994
3.93000 -0.02038
3.93200 0.05519
3.93400 -0.01721
3.93600 0.01981
3.93800 0.01421
3.94000 0.02666
3.94200 0.01199
3.94400 0.00277
3.94600 0.07273
3.94800 -0.01227
3.95000 -0.01820
3.95200 0.09756
3.95400 -0.10129
3.95600 0.03886
3.95800 -0.02537
3.96000 0.06541
3.96200 -0.00237
3.96400 0.11379
3.96600 0.04468
3.96800 0.03911
3.97000 0.02589
3.97200 0.04829
3.97400 0.34779
3.97600 0.68161
3.97800 1.26140
3.98000 1.60881
3.98200 1.02692
3.98400 0.45386
3.98600 0.12533
3.98800 -0.02743
3.99000 -0.01205
3.99200 -0.03256
3.99400 0.04117
3.99600 -0.03694
3.99800 -0.03161
4.00000 0.04522
4.00200 -0.06389
4.00400 0.03490
4.00600 0.01121
4.00800 0.08076
4.01000 0.01804
4.01200 0.09275
4.01400 0.01133
4.01600 0.07735
4.01800 0.03816
4.02000 -0.11245
4.02200 0.13528
4.02400 -0.07838
4.02600 -0.06532
4.02800 -0.00318
4.03000 -0.08996
4.03200 -0.09242
4.03400 0.00757
4.03600 -0.12554
4.03800 0.00395
4.04000 -0.03471
4.04200 0.00130
4.04400 0.02648
4.04600 -0.00234
4.04800 0.01814
4.05000 0.01211
4.05200 0.05300
4.05400 0.14427
4.05600 0.11474
4.05800 -0.04753
4.06000 0.04601
4.06200 -0.02300
4.06400 -0.01883
4.06600 -0.04946
4.06800 -0.01253
4.07000 -0.11615
4.07200 -0.04273
4.07400 0.08488
4.07600 -0.02878
4.07800 -0.08943
4.08000 -0.01868
4.08200 -0.05181
4.08400 0.12066
4.08600 -0.00432
4.08800 -0.01274
4.09000 -0.00247
4.09200 -0.04030
4.09400 -0.02754
4.09600 -0.04376
4.09800 0.03266
4.10000 0.08492
4.10200 0.05275
4.10400 0.01445
4.10600 0.06884
4.10800 0.01199
4.11000 -0.04694
4.11200 -0.04178
4.11400 -0.05739
4.11600 0.05205
4.11800 0.04717
4.12000 0.08642
4.12200 0.11881
4.12400 -0.00944
4.12600 0.02506
4.12800 0.03889
4.13000 -0.07935
4.13200 -0.15261
4.13400 -0.13589
4.13600 0.08030
4.13800 0.01297
4.14000 0.01195
4.14200 -0.00530
4.14400 -0.01027
4.14600 -0.00624
4.14800 -0.07094
4.15000 -0.06414
4.15200 0.02245
4.15400 -0.03311
4.15600 0.08354
4.15800 0.05623
4.16000 -0.10866
4.16200 0.04770
4.16400 -0.08321
4.16600 -0.11153
4.16800 0.05419
4.17000 -0.00226
4.17200 0.13950
4.17400 0.03838
4.17600 0.00761
4.17800 0.05161
4.18000 -0.02440
4.18200 -0.00754
4.18400 0.01515
4.18600 -0.03026
4.18800 -0.04990
4.19000 0.00519
4.19200 0.08932
4.19400 0.03982
4.19600 0.00387
4.19800 -0.04513
4.20000 -0.02531
4.20200 -0.02193
4.20400 -0.08884
4.20600 -0.06958
4.20800 0.05812
4.21000 -0.05861
4.21200 -0.03959
4.21400 -0.06583
4.21600 -0.04014
4.21800 -0.05069
4.22000 -0.08710
4.22200 0.04149
4.22400 0.04139
4.22600 -0.06811
4.22800 0.07559
4.23000 0.00516
4.23200 0.00518
4.23400 0.07431
4.23600 -0.08186
4.23800 -0.12646
4.24000 -0.07206
4.24200 -0.04253
4.24400 0.00637
4.24600 -0.02910
4.24800 0.01805
4.25000 -0.02249
4.25200 -0.01912
4.25400 -0.01537
4.25600 0.05802
4.25800 -0.00421
4.26000 0.06935
4.26200 0.04851
4.26400 -0.09884
4.26600 0.01874
4.26800 -0.07033
4.27000 0.14697
4.27200 -0.00696
4.27400 -0.03271
4.27600 0.05179
4.27800 0.04474
4.28000 0.03417
4.28200 0.05993
4.28400 0.05429
4.28600 -0.02732
4.28800 0.06516
4.29000 0.08604
4.29200 -0.04189
4.29400 -0.06844
4.29600 -0.06031
4.29800 -0.01598
4.30000 -0.03924
4.30200 0.05812
4.30400 -0.04318
4.30600 0.08135
4.30800 0.06779
4.31000 -0.03965
4.31200 -0.05163
4.31400 0.06661
4.31600 -0.02814
4.31800 -0.04154
4.32000 -0.05696
4.32200 0.08648
4.32400 -0.08222
4.32600 -0.00604
4.32800 0.04467
4.33000 0.08087
4.33200 -0.12243
4.33400 0.03152
4.33600 0.11635
4.33800 0.02249
4.34000 -0.10807
4.34200 -0.08600
4.34400 0.00863
4.34600 0.03433
4.34800 0.04413
4.35000 -0.05510
4.35200 -0.00725
4.35400 -0.00415
4.35600 -0.10369
4.35800 -0.00602
4.36000 0.04728
4.36200 -0.01147
4.36400 -0.08081
4.36600 -0.03456
4.36800 0.00693
4.37000 0.00116
4.37200 0.02418
4.37400 -0.00717
4.37600 0.04499
4.37800 0.07646
4.38000 -0.08619
4.38200 -0.03995
4.38400 0.13189
4.38600 0.03585
4.38800 0.00837
4.39000 -0.00791
4.39200 0.09607
4.39400 0.07381
4.39600 0.09209
4.39800 0.03952
4.40000 0.04319
4.40200 0.03842
4.40400 0.05350
4.40600 -0.02955
4.40800 -0.00263
4.41000 0.07433
4.41200 0.00519
4.41400 -0.01419
4.41600 -0.13921
4.41800 -0.00372
4.42000 0.02463
4.42200 0.04675
4.42400 0.00429
4.42600 0.04501
4.42800 0.10633
4.43000 0.00305
4.43200 -0.06779
4.43400 -0.06018
4.43600 -0.01153
4.43800 0.03739
4.44000 0.07960
4.44200 -0.14254
4.44400 -0.04356
4.44600 0.05534
4.44800 0.00078
4.45000 0.06844
4.45200 -0.02621
4.45400 -0.00954
4.45600 -0.01192
4.45800 0.03569
4.46000 0.11091
4.46200 0.11791
4.46400 0.08302
4.46600 -0.02264
4.46800 0.07883
4.47000 -0.16623
4.47200 0.01459
4.47400 0.06820
4.47600 0.00642
4.47800 -0.02875
4.48000 -0.01817
4.48200 -0.15215
4.48400 -0.02527
4.48600 0.00330
4.48800 0.06723
4.49000 -0.02516
4.49200 0.04373
4.49400 -0.07164
4.49600 0.04780
4.49800 0.09465
4.50000 -0.06619
4.50200 -0.00250
4.50400 -0.07715
4.50600 0.06643
4.50800 -0.10058
4.51000 -0.01404
4.51200 -0.05952
4.51400 0.01450
4.51600 -0.09770
4.51800 -0.07478
4.52000 0.01594
4.52200 -0.10389
4.52400 -0.00547
4.52600 -0.06610
4.52800 -0.05432
4.53000 0.06393
4.53200 0.02285
4.53400 -0.07377
4.53600 0.05790
4.53800 -0.09477
4.54000 -0.04707
4.54200 0.06949
4.54400 0.08028
4.54600 0.03649
4.54800 -0.01664
4.55000 -0.00321
4.55200 0.11365
4.55400 0.19853
4.55600 0.01924
4.55800 0.00545
4.56000 0.09670
4.56200 -0.11696
4.56400 -0.03856
4.56600 -0.02496
4.56800 -0.12484
4.57000 0.05413
4.57200 -0.01710
4.57400 -0.07102
4.57600 -0.03052
4.57800 0.04099
4.58000 0.03274
4.58200 0.00538
4.58400 0.00859
4.58600 0.13088
4.58800 0.63340
4.59000 1.24843
4.59200 1.49349
4.59400 1.13772
4.59600 0.67165
4.59800 0.11912
4.60000 -0.03892
4.60200 0.10161
4.60400 -0.01238
4.60600 -0.01813
4.60800 -0.05024
4.61000 -0.02076
4.61200 -0.01614
4.61400 -0.02984
4.61600 -0.04177
4.61800 0.06866
4.62000 0.07201
4.62200 0.00620
4.62400 0.01737
4.62600 0.02316
4.62800 0.07584
4.63000 -0.01738
4.63200 -0.09652
4.63400 0.02445
4.63600 -0.01757
4.63800 -0.05176
4.64000 0.00753
4.64200 0.07915
4.64400 0.01949
4.64600 -0.10588
4.64800 -0.03719
4.65000 -0.19274
4.65200 -0.05496
4.65400 0.01212
4.65600 0.03453
4.65800 0.06357
4.66000 0.10042
4.66200 0.07760
4.66400 0.01118
4.66600 -0.10760
4.66800 0.07877
4.67000 -0.01952
4.67200 0.03775
4.67400 0.01283
4.67600 -0.04924
4.67800 0.05370
4.68000 0.02580
4.68200 0.01775
4.68400 0.01122
4.68600 0.00170
4.68800 -0.07670
4.69000 -0.06202
4.69200 0.06938
4.69400 0.02825
4.69600 -0.12126
4.69800 -0.11908
4.70000 -0.07639
4.70200 -0.00867
4.70400 -0.04749
4.70600 0.14829
4.70800 0.02533
4.71000 -0.02181
4.71200 0.01210
4.71400 0.01627
4.71600 -0.06413
4.71800 -0.01946
4.72000 0.05916
4.72200 -0.05014
4.72400 -0.03884
4.72600 0.00087
4.72800 0.10045
4.73000 -0.00968
4.73200 0.09982
4.73400 0.05741
4.73600 -0.11209
4.73800 -0.08737
4.74000 -0.02837
4.74200 0.07479
4.74400 -0.06158
4.74600 -0.01191
4.74800 -0.05220
4.75000 0.02025
4.75200 0.00798
4.75400 -0.01231
4.75600 -0.04267
4.75800 0.02914
4.76000 0.04205
4.76200 0.09980
4.76400 -0.04492
4.76600 0.04826
4.76800 0.06050
4.77000 -0.06155
4.77200 0.06249
4.77400 0.04110
4.77600 0.09698
4.77800 0.11108
4.78000 0.09417
4.78200 0.03135
4.78400 -0.06883
4.78600 -0.16402
4.78800 0.03977
4.79000 -0.03580
4.79200 0.00516
4.79400 -0.05903
4.79600 -0.05445
4.79800 -0.01281
4.80000 0.03494
4.80200 0.07031
4.80400 -0.09756
4.80600 0.01673
4.80800 -0.02476
4.81000 -0.03594
4.81200 -0.06782
4.81400 0.00134
4.81600 -0.02218
4.81800 -0.14160
4.82000 -0.04149
4.82200 0.01538
4.82400 -0.05900
4.82600 -0.04173
4.82800 0.01508
4.83000 0.06275
4.83200 -0.02876
4.83400 0.15298
4.83600 0.06226
4.83800 0.01678
4.84000 -0.07989
4.84200 -0.02294
4.84400 0.00772
4.84600 0.05214
4.84800 0.00776
4.85000 -0.04189
4.85200 0.06891
4.85400 0.06035
4.85600 0.05552
4.85800 -0.00394
4.86000 -0.00308
4.86200 -0.05338
4.86400 -0.03073
4.86600 -0.13057
4.86800 0.06964
4.87000 -0.07299
4.87200 -0.06065
4.87400 -0.04829
4.87600 0.10174
4.87800 -0.03032
4.88000 -0.01138
4.88200 0.00803
4.88400 -0.04440
4.88600 0.02826
4.88800 -0.01201
4.89000 0.03783
4.89200 -0.00461
4.89400 -0.04816
4.89600 -0.04129
4.89800 -0.04784
4.90000 -0.07393
4.90200 -0.03256
4.90400 0.13687
4.90600 -0.05655
4.90800 0.03817
4.91000 -0.04832
4.91200 0.03304
4.91400 -0.03125
4.91600 -0.01019
4.91800 0.09890
4.92000 0.01220
4.92200 -0.05278
4.92400 -0.07730
4.92600 0.02361
4.92800 0.08906
4.93000 0.02461
4.93200 -0.00615
4.93400 0.02707
4.93600 0.08610
4.93800 -0.08945
4.94000 -0.04047
4.94200 0.00659
4.94400 0.02872
4.94600 0.01881
4.94800 0.11839
4.95000 -0.03570
4.95200 -0.08449
4.95400 -0.01842
4.95600 -0.02965
4.95800 0.08361
4.96000 0.08184
4.96200 0.02782
4.96400 0.07466
4.96600 -0.05184
4.96800 -0.00562
4.97000 0.11122
4.97200 0.06376
4.97400 0.03554
4.97600 -0.04648
4.97800 -0.00852
4.98000 -0.09077
4.98200 -0.06186
4.98400 -0.02085
4.98600 0.02783
4.98800 0.07867
4.99000 -0.03758
4.99200 0.05541
4.99400 0.06914
4.99600 -0.05201
4.99800 -0.02359
5.00000 -0.11204
5.00200 -0.09232
5.00400 0.00898
5.00600 0.10880
5.00800 0.00053
5.01000 -0.04487
5.01200 -0.05100
5.01400 -0.04384
5.01600 0.06607
5.01800 0.04732
5.02000 0.00764
5.02200 -0.06230
5.02400 -0.06012
5.02600 0.03833
5.02800 0.03175
5.03000 0.07893
5.03200 -0.09229
5.03400 -0.00780
5.03600 -0.01420
5.03800 0.03453
5.04000 0.05251
5.04200 0.01649
5.04400 -0.07409
5.04600 -0.01884
5.04800 0.00752
5.05000 -0.06348
5.05200 -0.06678
5.05400 0.11823
5.05600 0.05720
5.05800 0.06127
5.06000 0.01282
5.06200 0.01768
5.06400 0.03993
5.06600 0.00273
5.06800 -0.06187
5.07000 0.10288
5.07200 0.00878
5.07400 0.01337
5.07600 -0.02912
5.07800 -0.02080
5.08000 0.00846
5.08200 0.06024
5.08400 -0.03712
5.08600 -0.05119
5.08800 0.02313
5.09000 -0.00784
5.09200 0.06113
5.09400 -0.04314
5.09600 0.05887
5.09800 -0.01062
5.10000 -0.08693
5.10200 0.04532
5.10400 -0.04941
5.10600 -0.03055
5.10800 0.01493
5.11000 0.03187
5.11200 -0.04375
5.11400 -0.06704
5.11600 -0.04175
5.11800 0.05045
5.12000 -0.02358
5.12200 -0.01069
5.12400 -0.04739
5.12600 0.00120
5.12800 -0.01494
5.13000 0.04215
5.13200 0.00565
5.13400 0.11619
5.13600 0.04203
5.13800 0.08285
5.14000 -0.04343
5.14200 0.06363
5.14400 -0.04566
5.14600 -0.02542
5.14800 -0.06254
5.15000 0.08702
5.15200 0.07885
5.15400 -0.02796
5.15600 0.09207
5.15800 -0.01013
5.16000 -0.07610
5.16200 0.01434
5.16400 0.06976
5.16600 -0.08663
5.16800 -0.07875
5.17000 -0.02273
5.17200 -0.02864
5.17400 0.01047
5.17600 0.00569
5.17800 -0.00712
5.18000 0.06081
5.18200 -0.11724
5.18400 -0.02531
5.18600 -0.08890
5.18800 -0.07107
5.19000 -0.04595
5.19200 -0.00016
5.19400 -0.08699
5.19600 0.08247
5.19800 0.21090
5.20000 0.58358
5.20200 1.07814
5.20400 1.41634
5.20600 1.26056
5.20800 0.62520
5.21000 0.24241
5.21200 0.13234
5.21400 0.01313
5.21600 -0.01245
5.21800 0.04089
5.22000 -0.03082
5.22200 -0.00525
5.22400 -0.06661
5.22600 0.01045
5.22800 0.01611
5.23000 0.01148
5.23200 -0.07225
5.23400 0.00686
5.23600 0.07017
5.23800 -0.10470
5.24000 0.07959
5.24200 -0.08470
5.24400 0.02921
5.24600 0.01495
5.24800 -0.00255
5.25000 0.02650
5.25200 -0.04148
5.25400 -0.04317
5.25600 -0.10643
5.25800 0.07561
5.26000 -0.11013
5.26200 0.08649
5.26400 0.14520
5.26600 -0.11896
5.26800 0.08808
5.27000 -0.07845
5.27200 -0.03707
5.27400 -0.06078
5.27600 -0.09652
5.27800 0.00491
5.28000 0.02390
5.28200 0.01651
5.28400 0.01661
5.28600 -0.01481
5.28800 0.02828
5.29000 -0.03479
5.29200 -0.11478
5.29400 -0.03242
5.29600 -0.00716
5.29800 0.03711
5.30000 -0.00796
5.30200 -0.07228
5.30400 -0.13803
5.30600 -0.03650
5.30800 0.11827
5.31000 -0.00879
5.31200 -0.01025
5.31400 0.05054
5.31600 0.06962
5.31800 -0.03405
5.32000 -0.07319
5.32200 -0.03542
5.32400 0.03477
5.32600 0.09589
5.32800 0.02507
5.33000 -0.08339
5.33200 0.07574
5.33400 -0.01586
5.33600 -0.13813
5.33800 -0.04259
5.34000 0.01241
5.34200 0.00805
5.34400 -0.08425
5.34600 -0.01507
5.34800 0.03206
5.35000 0.00176
5.35200 0.07154
5.35400 -0.14017
5.35600 0.07162
5.35800 -0.02730
5.36000 -0.07756
5.36200 -0.04954
5.36400 0.05703
5.36600 -0.02152
5.36800 0.00478
5.37000 0.02876
5.37200 -0.01284
5.37400 -0.01344
5.37600 0.00265
5.37800 0.06254
5.38000 -0.03832
5.38200 -0.03825
5.38400 0.05772
5.38600 -0.02773
5.38800 -0.07881
5.39000 0.01878
5.39200 0.03891
5.39400 0.03712
5.39600 -0.11191
5.39800 -0.01112
5.40000 0.06323
5.40200 0.04456
5.40400 0.01902
5.40600 0.03282
5.40800 -0.00517
5.41000 -0.02666
5.41200 -0.06566
5.41400 0.04738
5.41600 0.07936
5.41800 -0.04527
5.42000 -0.02226
5.42200 0.04479
5.42400 -0.17149
5.42600 0.13222
5.42800 0.02755
5.43000 -0.05213
5.43200 -0.05923
5.43400 0.01432
5.43600 0.03632
5.43800 0.00881
5.44000 -0.03473
5.44200 -0.00312
5.44400 -0.03538
5.44600 -0.00467
5.44800 -0.01395
5.45000 0.02759
5.45200 0.04286
5.45400 -0.01681
5.45600 0.04595
5.45800 -0.06417
5.46000 -0.04908
5.46200 -0.01910
5.46400 0.03763
5.46600 0.09610
5.46800 0.09210
5.47000 -0.01045
5.47200 0.00242
5.47400 0.06342
5.47600 0.04392
5.47800 -0.09206
5.48000 -0.04625
5.48200 -0.14082
5.48400 -0.02376
5.48600 -0.04081
5.48800 0.02787
5.49000 -0.00948
5.49200 -0.09509
5.49400 0.02137
5.49600 0.00742
5.49800 0.06354
5.50000 -0.00964
5.50200 -0.00234
5.50400 -0.00729
5.50600 0.15790
5.50800 0.04107
5.51000 -0.00342
5.51200 0.09767
5.51400 0.02555
5.51600 0.04366
5.51800 0.07063
5.52000 0.07580
5.52200 -0.05002
5.52400 -0.13821
5.52600 -0.01336
5.52800 0.00066
5.53000 -0.02610
5.53200 0.06535
5.53400 -0.12702
5.53600 -0.06027
5.53800 0.03895
5.54000 0.03161
5.54200 -0.00596
5.54400 -0.11609
5.54600 -0.00978
5.54800 -0.00225
5.55000 -0.03811
5.55200 -0.01075
5.55400 0.02433
5.55600 -0.00367
5.55800 0.04319
5.56000 0.00131
5.56200 0.09437
5.56400 0.09347
5.56600 0.03125
5.56800 -0.00555
5.57000 0.02065
5.57200 0.00039
5.57400 0.00147
5.57600 -0.00617
5.57800 -0.08924
5.58000 0.02642
5.58200 -0.04164
5.58400 -0.01741
5.58600 -0.07956
5.58800 -0.02702
5.59000 0.00675
5.59200 0.00697
5.59400 -0.03856
5.59600 0.05419
5.59800 0.02086
5.60000 -0.07386
5.60200 0.01293
5.60400 0.05642
5.60600 0.00100
5.60800 0.05875
5.61000 -0.15957
5.61200 -0.08282
5.61400 -0.00343
5.61600 -0.12052
5.61800 0.10065
5.62000 0.06724
5.62200 -0.03258
5.62400 -0.01392
5.62600 -0.00211
5.62800 -0.05152
5.63000 0.02274
5.63200 0.01296
5.63400 0.06727
5.63600 -0.01052
5.63800 0.00117
5.64000 -0.06543
5.64200 0.03440
5.64400 0.03553
5.64600 0.01406
5.64800 0.10905
5.65000 0.03734
5.65200 -0.07914
5.65400 -0.03421
5.65600 0.10981
5.65800 0.03794
5.66000 -0.04911
5.66200 -0.04787
5.66400 0.01762
5.66600 -0.04302
5.66800 -0.08680
5.67000 0.05556
5.67200 -0.06232
5.67400 -0.02134
5.67600 -0.03021
5.67800 0.00045
5.68000 -0.03166
5.68200 -0.03724
5.68400 -0.11095
5.68600 -0.00007
5.68800 -0.08344
5.69000 0.00862
5.69200 -0.00939
5.69400 -0.01821
5.69600 0.00659
5.69800 -0.13338
5.70000 -0.06164
5.70200 -0.05822
5.70400 -0.03011
5.70600 -0.06002
5.70800 0.05055
5.71000 0.00966
5.71200 0.03509
5.71400 -0.05297
5.71600 -0.01438
5.71800 -0.05262
5.72000 0.07150
5.72200 -0.03953
5.72400 -0.10620
5.72600 -0.02506
5.72800 0.05534
5.73000 -0.05555
5.73200 -0.12516
5.73400 -0.07333
5.73600 -0.03166
5.73800 0.14463
5.74000 -0.08765
5.74200 0.03177
5.74400 -0.00323
5.74600 -0.03870
5.74800 0.02154
5.75000 -0.18366
5.75200 -0.02305
5.75400 0.02541
5.75600 -0.09224
5.75800 0.04540
5.76000 -0.02947
5.76200 0.03034
5.76400 0.01828
5.76600 -0.00623
5.76800 -0.04487
5.77000 0.07133
5.77200 -0.02542
5.77400 0.03995
5.77600 -0.04215
5.77800 -0.04148
5.78000 -0.05233
5.78200 -0.03751
5.78400 -0.05184
5.78600 0.03244
5.78800 0.01524
5.79000 -0.00691
5.79200 0.07583
5.79400 -0.02090
5.79600 0.03215
5.79800 0.03186
5.80000 0.04161
5.80200 0.02110
5.80400 0.00059
5.80600 0.10341
5.80800 0.07006
5.81000 0.19835
5.81200 0.44890
5.81400 1.11304
5.81600 1.41080
5.81800 1.31490
5.82000 0.65329
5.82200 0.30296
5.82400 0.07880
5.82600 0.00022
5.82800 0.00892
5.83000 0.05862
5.83200 -0.02686
5.83400 -0.06692
5.83600 0.05825
5.83800 0.02251
5.84000 0.08467
5.84200 -0.03134
5.84400 -0.06333
5.84600 0.11476
5.84800 -0.03228
5.85000 -0.00835
5.85200 -0.01434
5.85400 0.06395
5.85600 0.05047
5.85800 0.00166
5.86000 0.01877
5.86200 -0.00055
5.86400 0.02655
5.86600 0.05329
5.86800 -0.08659
5.87000 -0.07694
5.87200 -0.00812
5.87400 -0.06530
5.87600 0.05850
5.87800 -0.02971
5.88000 -0.01974
5.88200 -0.05593
5.88400 -0.02547
5.88600 0.02401
5.88800 0.04530
5.89000 0.11063
5.89200 -0.06215
5.89400 -0.06424
5.89600 -0.01165
5.89800 -0.03536
5.90000 0.01461
5.90200 -0.00716
5.90400 -0.01307
5.90600 0.01630
5.90800 -0.09335
5.91000 -0.12346
5.91200 -0.03880
5.91400 0.10214
5.91600 0.08109
5.91800 0.10057
5.92000 0.01587
5.92200 0.02290
5.92400 0.01142
5.92600 0.00952
5.92800 0.05567
5.93000 0.07345
5.93200 0.05997
5.93400 0.01680
5.93600 0.00740
5.93800 0.01494
5.94000 -0.01269
5.94200 0.02514
5.94400 0.01504
5.94600 -0.00720
5.94800 0.10729
5.95000 0.13430
5.95200 0.06347
5.95400 0.01216
5.95600 0.06450
5.95800 0.05970
5.96000 -0.00184
5.96200 0.03631
5.96400 0.04589
5.96600 0.09200
5.96800 -0.03726
5.97000 -0.04227
5.97200 -0.00856
5.97400 0.00619
5.97600 -0.01012
5.97800 0.05654
5.98000 -0.09579
5.98200 0.02823
5.98400 -0.07945
5.98600 -0.00626
5.98800 0.05279
5.99000 0.10369
5.99200 -0.03455
5.99400 -0.00201
5.99600 0.05772
5.99800 -0.02456
6.00000 0.01985
6.00200 0.12932
6.00400 -0.00062
6.00600 -0.09963
6.00800 0.05574
6.01000 0.01655
6.01200 -0.04589
6.01400 -0.10167
6.01600 0.01729
6.01800 -0.11040
6.02000 -0.06403
6.02200 0.02300
6.02400 -0.01515
6.02600 -0.02035
6.02800 0.02112
6.03000 -0.05795
6.03200 -0.02695
6.03400 -0.13681
6.03600 0.02028
6.03800 0.04245
6.04000 -0.06172
6.04200 0.04940
6.04400 -0.01262
6.04600 -0.04966
6.04800 -0.05527
6.05000 0.03006
6.05200 0.05018
6.05400 0.06540
6.05600 -0.01932
6.05800 0.03767
6.06000 0.06294
6.06200 -0.03899
6.06400 0.02653
6.06600 0.03605
6.06800 -0.03030
6.07000 0.02239
6.07200 0.04999
6.07400 0.06410
6.07600 -0.12138
6.07800 0.08332
6.08000 0.00227
6.08200 -0.10883
6.08400 -0.03275
6.08600 0.14706
6.08800 0.09037
6.09000 0.05176
6.09200 0.01435
6.09400 -0.03280
6.09600 0.10130
6.09800 0.04584
6.10000 0.05580
6.10200 -0.01057
6.10400 -0.05683
6.10600 0.03502
6.10800 -0.06656
6.11000 0.12910
6.11200 -0.09896
6.11400 -0.12428
6.11600 -0.02523
6.11800 0.01796
6.12000 0.04587
6.12200 0.06993
6.12400 -0.11460
6.12600 -0.03299
6.12800 0.07349
6.13000 0.05239
6.13200 -0.01111
6.13400 0.01056
6.13600 -0.04584
6.13800 -0.05678
6.14000 0.03797
6.14200 0.02504
6.14400 0.04788
6.14600 0.01682
6.14800 -0.00641
6.15000 0.03204
6.15200 -0.05093
6.15400 0.10077
6.15600 0.08047
6.15800 -0.00730
6.16000 0.12102
6.16200 -0.05422
6.16400 0.00228
6.16600 0.02155
6.16800 -0.00056
6.17000 -0.01813
6.17200 0.16106
6.17400 0.07106
6.17600 -0.02532
6.17800 0.00535
6.18000 -0.02354
6.18200 -0.04562
6.18400 0.07975
6.18600 0.02227
6.18800 0.12610
6.19000 0.01707
6.19200 0.00028
6.19400 -0.08825
6.19600 0.05893
6.19800 -0.01302
6.20000 -0.00046
6.20200 -0.05791
6.20400 -0.00467
6.20600 -0.04266
6.20800 0.05193
6.21000 0.00120
6.21200 -0.04446
6.21400 -0.07009
6.21600 -0.01001
6.21800 0.02445
6.22000 0.04329
6.22200 0.02973
6.22400 0.01983
6.22600 -0.01953
6.22800 -0.02962
6.23000 -0.02844
6.23200 0.02741
6.23400 -0.04099
6.23600 0.05168
6.23800 -0.00932
6.24000 0.04528
6.24200 0.06782
6.24400 -0.05727
6.24600 0.04701
6.24800 0.02198
6.25000 0.02209
6.25200 -0.05998
6.25400 0.09545
6.25600 -0.14941
6.25800 0.01743
6.26000 -0.03614
6.26200 -0.02678
6.26400 -0.01709
6.26600 -0.06832
6.26800 0.00415
6.27000 0.01623
6.27200 -0.01773
6.27400 -0.03158
6.27600 -0.02557
6.27800 -0.01165
6.28000 -0.13647
6.28200 0.09688
6.28400 -0.00916
6.28600 0.03977
6.28800 0.07147
6.29000 0.00649
6.29200 -0.03143
6.29400 0.00241
6.29600 0.03331
6.29800 0.01300
6.30000 -0.03103
6.30200 0.02074
6.30400 0.02923
6.30600 0.04046
6.30800 -0.01865
6.31000 -0.00175
6.31200 0.03893
6.31400 0.00052
6.31600 0.03747
6.31800 0.11418
6.32000 -0.02603
6.32200 -0.00173
6.32400 -0.00228
6.32600 0.02403
6.32800 0.06622
6.33000 0.03307
6.33200 0.14348
6.33400 -0.02712
6.33600 -0.04545
6.33800 -0.03629
6.34000 -0.01478
6.34200 -0.03186
6.34400 -0.15826
6.34600 -0.08194
6.34800 0.02895
6.35000 0.00897
6.35200 0.01502
6.35400 -0.04133
6.35600 -0.06574
6.35800 -0.05262
6.36000 -0.00787
6.36200 0.07857
6.36400 0.05406
6.36600 0.05113
6.36800 0.00869
6.37000 -0.06321
6.37200 -0.08460
6.37400 0.12732
6.37600 -0.00397
6.37800 0.03412
6.38000 -0.04282
6.38200 -0.05406
6.38400 0.07917
6.38600 0.00379
6.38800 0.03931
6.39000 0.04588
6.39200 -0.07567
6.39400 -0.07042
6.39600 -0.04097
6.39800 -0.06702
6.40000 0.02617
6.40200 0.07120
6.40400 0.14395
6.40600 -0.05740
6.40800 -0.06259
6.41000 -0.02677
6.41200 -0.06990
6.41400 0.01868
6.41600 -0.06023
6.41800 0.10414
6.42000 0.10238
6.42200 0.14140
6.42400 0.46233
6.42600 0.96157
6.42800 1.40571
6.43000 1.46882
6.43200 0.78328
6.43400 0.31604
6.43600 0.10326
6.43800 0.10380
6.44000 0.02858
6.44200 -0.05724
6.44400 -0.06705
6.44600 -0.08073
6.44800 -0.06362
6.45000 0.13946
6.45200 0.17003
6.45400 0.11346
6.45600 -0.04575
6.45800 -0.04723
6.46000 -0.09125
6.46200 -0.10206
6.46400 0.05997
6.46600 0.00626
6.46800 0.08777
6.47000 0.09257
6.47200 0.00509
6.47400 0.07960
6.47600 -0.00852
6.47800 -0.01888
6.48000 -0.02976
6.48200 0.06715
6.48400 0.06223
6.48600 0.03360
6.48800 0.05764
6.49000 0.02339
6.49200 0.00319
6.49400 -0.00816
6.49600 0.05317
6.49800 -0.01294
6.50000 -0.02800
6.50200 -0.11266
6.50400 -0.03968
6.50600 -0.10070
6.50800 0.04165
6.51000 -0.06334
6.51200 -0.09852
6.51400 -0.02692
6.51600 -0.11480
6.51800 0.08923
6.52000 0.08018
6.52200 -0.04528
6.52400 -0.05280
6.52600 -0.02567
6.52800 -0.03867
6.53000 0.03417
6.53200 -0.02993
6.53400 -0.06085
6.53600 0.05410
6.53800 -0.08229
6.54000 -0.01068
6.54200 -0.06531
6.54400 0.01913
6.54600 -0.03900
6.54800 -0.01148
6.55000 0.02150
6.55200 0.09659
6.55400 -0.02825
6.55600 0.06373
6.55800 -0.00358
6.56000 -0.08674
6.56200 -0.01133
6.56400 -0.00532
6.56600 0.07685
6.56800 -0.04838
6.57000 0.03118
6.57200 -0.06528
6.57400 0.16064
6.57600 -0.03433
6.57800 0.08484
6.58000 0.02283
6.58200 0.03939
6.58400 0.00035
6.58600 0.04522
6.58800 -0.06282
6.59000 -0.07654
6.59200 -0.02670
6.59400 -0.08210
6.59600 0.03398
6.59800 -0.03705
6.60000 0.06760
6.60200 -0.04747
6.60400 0.09463
6.60600 -0.05681
6.60800 0.05548
6.61000 -0.00693
6.61200 -0.00312
6.61400 0.09120
6.61600 0.02115
6.61800 0.01912
6.62000 0.03042
6.62200 0.06355
6.62400 0.10750
6.62600 -0.12669
6.62800 0.12280
6.63000 -0.06416
6.63200 -0.08075
6.63400 -0.08049
6.63600 0.07175
6.63800 0.03029
6.64000 0.05159
6.64200 -0.08256
6.64400 0.01621
6.64600 -0.01788
6.64800 0.09487
6.65000 -0.01006
6.65200 0.07377
6.65400 0.02388
6.65600 -0.03448
6.65800 0.03033
6.66000 0.03813
6.66200 -0.03060
6.66400 -0.00094
6.66600 -0.03505
6.66800 0.12464
6.67000 -0.02213
6.67200 0.02589
6.67400 0.06039
6.67600 -0.02873
6.67800 0.07233
6.68000 -0.07613
6.68200 0.05349
6.68400 0.02087
6.68600 0.08037
6.68800 -0.05022
6.69000 0.07256
6.69200 0.01849
6.69400 0.02238
6.69600 -0.05798
6.69800 -0.12890
6.70000 0.02660
6.70200 -0.05345
6.70400 0.02038
6.70600 0.04371
6.70800 -0.05262
6.71000 0.17255
6.71200 0.01200
6.71400 -0.02873
6.71600 0.04986
6.71800 -0.04159
6.72000 -0.00160
6.72200 -0.08934
6.72400 0.02201
6.72600 -0.08009
6.72800 0.04282
6.73000 0.04106
6.73200 -0.09505
6.73400 0.10753
6.73600 0.01194
6.73800 0.06586
6.74000 -0.00987
6.74200 -0.13416
6.74400 -0.00131
6.74600 -0.08506
6.74800 0.11298
6.75000 0.02512
6.75200 -0.06836
6.75400 -0.08228
6.75600 -0.02277
6.75800 -0.02381
6.76000 -0.11182
6.76200 -0.12851
6.76400 0.01292
6.76600 0.00236
6.76800 -0.07732
6.77000 -0.03496
6.77200 0.06753
6.77400 -0.07964
6.77600 -0.03664
6.77800 0.06448
6.78000 0.04833
6.78200 -0.07546
6.78400 -0.07636
6.78600 -0.02223
6.78800 -0.03370
6.79000 -0.02428
6.79200 -0.01449
6.79400 0.02120
6.79600 0.09077
6.79800 0.00330
6.80000 0.07513
6.80200 0.12397
6.80400 -0.00261
6.80600 0.03865
6.80800 -0.00427
6.81000 0.04410
6.81200 -0.02886
6.81400 -0.00241
6.81600 0.02644
6.81800 0.08373
6.82000 0.07082
6.82200 0.05402
6.82400 -0.01988
6.82600 -0.02262
6.82800 0.03927
6.83000 0.01664
6.83200 -0.02415
6.83400 -0.00019
6.83600 0.01415
6.83800 -0.10907
6.84000 0.16790
6.84200 0.06264
6.84400 0.10006
6.84600 -0.01538
6.84800 -0.00775
6.85000 0.07942
6.85200 -0.04796
6.85400 0.01029
6.85600 0.06927
6.85800 -0.00013
6.86000 -0.01570
6.86200 0.08842
6.86400 -0.01329
6.86600 -0.03240
6.86800 -0.03850
6.87000 0.02602
6.87200 0.01737
6.87400 0.04133
6.87600 0.09760
6.87800 -0.12548
6.88000 -0.07283
6.88200 0.08025
6.88400 -0.10509
6.88600 -0.03536
6.88800 0.10297
6.89000 -0.04323
6.89200 -0.08954
6.89400 -0.00729
6.89600 0.07698
6.89800 -0.00929
6.90000 0.07681
6.90200 -0.00164
6.90400 -0.08430
6.90600 -0.07254
6.90800 -0.10539
6.91000 0.00293
6.91200 0.00861
6.91400 0.09183
6.91600 -0.04018
6.91800 0.04671
6.92000 0.00132
6.92200 0.01522
6.92400 0.00019
6.92600 -0.02624
6.92800 -0.03948
6.93000 -0.01857
6.93200 0.07107
6.93400 -0.03384
6.93600 -0.05583
6.93800 -0.03439
6.94000 -0.09062
6.94200 0.00978
6.94400 0.04270
6.94600 0.07643
6.94800 -0.02750
6.95000 0.09728
6.95200 0.07210
6.95400 -0.12087
6.95600 -0.04838
6.95800 0.03054
6.96000 0.02105
6.96200 0.00488
6.96400 -0.01493
6.96600 0.01494
6.96800 -0.04536
6.97000 0.11025
6.97200 0.06434
6.97400 -0.03905
6.97600 0.05635
6.97800 -0.01887
6.98000 0.02660
6.98200 -0.07869
6.98400 -0.03542
6.98600 -0.03437
6.98800 0.03457
6.99000 -0.01895
6.99200 -0.07295
6.99400 0.09673
6.99600 -0.03804
6.99800 -0.10286
7.00000 -0.02391
7.00200 0.00956
7.00400 -0.01171
7.00600 0.09339
7.00800 0.00447
7.01000 -0.09203
7.01200 0.00484
7.01400 -0.05429
7.01600 0.08481
7.01800 0.08969
7.02000 0.03196
7.02200 0.05648
7.02400 0.09267
7.02600 0.01432
7.02800 0.03067
7.03000 0.05290
7.03200 0.08633
7.03400 0.12075
7.03600 0.52060
7.03800 0.90578
7.04000 1.56015
7.04200 1.49468
7.04400 0.91489
7.04600 0.37365
7.04800 -0.02268
7.05000 0.01754
7.05200 -0.02206
7.05400 0.03744
7.05600 0.09264
7.05800 -0.06060
7.06000 0.00890
7.06200 -0.07695
7.06400 -0.01446
7.06600 0.07860
7.06800 -0.05009
7.07000 -0.09182
7.07200 0.16209
7.07400 0.06175
7.07600 -0.08803
7.07800 -0.13304
7.08000 -0.01002
7.08200 0.00357
7.08400 0.07569
7.08600 0.00076
7.08800 -0.02138
7.09000 0.09522
7.09200 -0.08977
7.09400 0.02830
7.09600 0.07259
7.09800 -0.07860
7.10000 0.02877
7.10200 0.07594
7.10400 -0.03054
7.10600 0.09424
7.10800 -0.01680
7.11000 0.00483
7.11200 0.02094
7.11400 -0.08638
7.11600 -0.14231
7.11800 0.01197
7.12000 -0.10080
7.12200 0.01607
7.12400 -0.11049
7.12600 0.05906
7.12800 0.01072
7.13000 -0.03899
7.13200 -0.09587
7.13400 -0.01060
7.13600 0.04785
7.13800 0.06467
7.14000 0.07270
7.14200 -0.00963
7.14400 -0.01585
7.14600 0.03099
7.14800 0.00525
7.15000 -0.05195
7.15200 -0.02041
7.15400 0.04301
7.15600 -0.03116
7.15800 -0.04268
7.16000 -0.03827
7.16200 -0.07116
7.16400 0.05656
7.16600 0.00193
7.16800 0.04053
7.17000 -0.04236
7.17200 -0.00429
7.17400 -0.04736
7.17600 0.07432
7.17800 0.07002
7.18000 -0.06674
7.18200 0.00540
7.18400 0.00720
7.18600 0.02266
7.18800 -0.07998
7.19000 -0.02874
7.19200 0.05942
7.19400 0.05261
7.19600 0.01202
7.19800 0.01497
7.20000 0.06146
7.20200 -0.09355
7.20400 -0.01551
7.20600 -0.07332
7.20800 0.03395
7.21000 -0.02497
7.21200 -0.10579
7.21400 0.05650
7.21600 -0.01057
7.21800 0.05163
7.22000 0.02804
7.22200 -0.00493
7.22400 0.04270
7.22600 0.03001
7.22800 0.12514
7.23000 -0.05260
7.23200 -0.00264
7.23400 0.03075
7.23600 -0.00926
7.23800 0.02895
7.24000 0.05067
7.24200 0.02016
7.24400 0.00533
7.24600 0.02916
7.24800 -0.01285
7.25000 0.06858
7.25200 -0.04610
7.25400 0.10151
7.25600 -0.02966
7.25800 -0.05794
7.26000 -0.01523
7.26200 -0.00285
7.26400 0.00293
7.26600 -0.02016
7.26800 0.08128
7.27000 -0.00356
7.27200 -0.08284
7.27400 0.04623
7.27600 -0.07796
7.27800 0.07031
7.28000 -0.02694
7.28200 0.03770
7.28400 0.05905
7.28600 0.03115
7.28800 -0.00059
7.29000 -0.00888
7.29200 0.01088
7.29400 0.10444
7.29600 0.05878
7.29800 0.02094
7.30000 -0.09439
7.30200 -0.03021
7.30400 -0.00402
7.30600 -0.05436
7.30800 0.12635
7.31000 0.06801
7.31200 0.08837
7.31400 0.02416
7.31600 0.06191
7.31800 -0.04058
7.32000 0.00791
7.32200 -0.01053
7.32400 0.02603
7.32600 0.06079
7.32800 0.02916
7.33000 0.04737
7.33200 0.01474
7.33400 0.04099
7.33600 -0.00124
7.33800 -0.12646
7.34000 -0.01166
7.34200 0.06655
7.34400 0.00899
7.34600 0.01863
7.34800 -0.10971
7.35000 -0.03513
7.35200 0.00548
7.35400 -0.04702
7.35600 -0.03927
7.35800 -0.05535
7.36000 -0.04738
7.36200 -0.07401
7.36400 -0.03376
7.36600 0.01098
7.36800 0.08441
7.37000 -0.09839
7.37200 0.00481
7.37400 0.12179
7.37600 -0.07729
7.37800 0.04992
7.38000 -0.01379
7.38200 0.01625
7.38400 0.04829
7.38600 -0.03128
7.38800 -0.00945
7.39000 -0.04078
7.39200 0.00648
7.39400 0.02405
7.39600 0.01151
7.39800 -0.06900
7.40000 -0.00784
7.40200 -0.07810
7.40400 0.04738
7.40600 0.04986
7.40800 0.03868
7.41000 -0.05472
7.41200 0.02479
7.41400 0.08276
7.41600 -0.01012
7.41800 0.14764
7.42000 -0.00896
7.42200 -0.04135
7.42400 0.01701
7.42600 -0.04318
7.42800 0.06276
7.43000 -0.00081
7.43200 -0.03957
7.43400 -0.00861
7.43600 0.04411
7.43800 0.08461
7.44000 0.11584
7.44200 0.02711
7.44400 -0.16193
7.44600 -0.04252
7.44800 0.01578
7.45000 -0.07461
7.45200 0.02090
7.45400 -0.00794
7.45600 -0.04259
7.45800 0.08795
7.46000 -0.05403
7.46200 -0.00286
7.46400 -0.04397
7.46600 0.02850
7.46800 -0.05125
7.47000 0.01552
7.47200 -0.00475
7.47400 0.02686
7.47600 -0.01707
7.47800 0.01483
7.48000 -0.14460
7.48200 0.02375
7.48400 0.04638
7.48600 0.07951
7.48800 -0.00008
7.49000 -0.01540
7.49200 -0.04594
7.49400 0.01942
7.49600 0.00275
7.49800 0.02468
7.50000 -0.02282
7.50200 -0.06555
7.50400 0.07079
7.50600 0.11890
7.50800 -0.01428
7.51000 0.04095
7.51200 0.01292
7.51400 0.02429
7.51600 -0.15683
7.51800 0.07570
7.52000 -0.03505
7.52200 -0.03342
7.52400 0.01515
7.52600 -0.00348
7.52800 -0.02099
7.53000 -0.09219
7.53200 -0.07786
7.53400 0.14071
7.53600 -0.02670
7.53800 -0.12712
7.54000 -0.00858
7.54200 0.07651
7.54400 0.01388
7.54600 -0.07520
7.54800 -0.07406
7.55000 -0.10691
7.55200 0.04169
7.55400 -0.03240
7.55600 -0.01598
7.55800 0.13947
7.56000 -0.02531
7.56200 0.00741
7.56400 0.04986
7.56600 -0.00848
7.56800 0.02338
7.57000 0.07384
7.57200 -0.00394
7.57400 -0.03315
7.57600 -0.05972
7.57800 -0.14036
7.58000 -0.02045
7.58200 -0.02853
7.58400 0.03047
7.58600 0.05330
7.58800 0.02181
7.59000 -0.11393
7.59200 -0.05272
7.59400 -0.01873
7.59600 -0.02481
7.59800 0.00859
7.60000 0.01914
7.60200 -0.02811
7.60400 0.04919
7.60600 -0.01816
7.60800 -0.06365
7.61000 0.06513
7.61200 0.06671
7.61400 0.02623
7.61600 0.04588
7.61800 -0.06982
7.62000 -0.03305
7.62200 0.00188
7.62400 -0.01552
7.62600 0.07199
7.62800 -0.02115
7.63000 0.06860
7.63200 0.03574
7.63400 -0.14469
7.63600 0.08726
7.63800 0.02386
7.64000 -0.10750
7.64200 0.04301
7.64400 -0.05959
7.64600 0.05600
7.64800 0.32687
7.65000 0.91025
7.65200 1.51103
7.65400 1.36342
7.65600 0.84060
7.65800 0.29804
7.66000 0.16246
7.66200 0.07046
7.66400 0.04114
7.66600 -0.09184
7.66800 -0.03195
7.67000 0.03135
7.67200 -0.04299
7.67400 -0.00205
7.67600 -0.03006
7.67800 0.05429
7.68000 0.04869
7.68200 0.11359
7.68400 -0.01486
7.68600 -0.05393
7.68800 -0.02154
7.69000 -0.03378
7.69200 0.08197
7.69400 -0.07639
7.69600 -0.03843
7.69800 0.14034
7.70000 0.08389
7.70200 0.03414
7.70400 0.10175
7.70600 -0.04406
7.70800 -0.09293
7.71000 -0.02080
7.71200 -0.04432
7.71400 -0.00303
7.71600 0.03052
7.71800 -0.06646
7.72000 0.03040
7.72200 0.07647
7.72400 0.05144
7.72600 -0.09052
7.72800 -0.06588
7.73000 -0.07663
7.73200 0.07935
7.73400 -0.02412
7.73600 -0.05649
7.73800 -0.03671
7.74000 0.01441
7.74200 -0.02139
7.74400 -0.00570
7.74600 0.11125
7.74800 0.01708
7.75000 0.02280
7.75200 0.06213
7.75400 -0.04040
7.75600 -0.07446
7.75800 0.05954
7.76000 -0.01296
7.76200 0.02291
7.76400 0.01288
7.76600 -0.03026
7.76800 0.04553
7.77000 0.10018
7.77200 0.04512
7.77400 0.04520
7.77600 0.08792
7.77800 -0.01658
7.78000 -0.10981
7.78200 0.06690
7.78400 -0.04490
7.78600 0.03217
7.78800 -0.15011
7.79000 0.02976
7.79200 -0.05168
7.79400 -0.00581
7.79600 -0.01919
7.79800 0.08912
7.80000 0.11270
7.80200 0.08149
7.80400 -0.04126
7.80600 -0.06316
7.80800 0.02578
7.81000 0.07402
7.81200 -0.05889
7.81400 0.03121
7.81600 -0.06606
7.81800 0.05234
7.82000 -0.02184
7.82200 -0.00110
7.82400 0.10185
7.82600 0.03323
7.82800 0.02553
7.83000 0.12131
7.83200 -0.02264
7.83400 0.00072
7.83600 0.01758
7.83800 0.09355
7.84000 0.02255
7.84200 -0.03925
7.84400 0.05377
7.84600 0.00060
7.84800 0.04775
7.85000 -0.05017
7.85200 -0.09524
7.85400 -0.00862
7.85600 0.01762
7.85800 0.00572
7.86000 0.04346
7.86200 0.01656
7.86400 -0.00997
7.86600 0.03715
7.86800 0.09697
7.87000 0.10601
7.87200 0.04842
7.87400 -0.04255
7.87600 0.03794
7.87800 -0.01078
7.88000 -0.03693
7.88200 0.04445
7.88400 0.09998
7.88600 0.06559
7.88800 -0.02087
7.89000 -0.03138
7.89200 0.04287
7.89400 0.01952
7.89600 -0.04624
7.89800 -0.02314
7.90000 0.10440
7.90200 0.08444
7.90400 0.01411
7.90600 0.05726
7.90800 -0.00989
7.91000 0.00264
7.91200 -0.12371
7.91400 0.12735
7.91600 0.02424
7.91800 0.08553
7.92000 -0.06684
7.92200 0.09550
7.92400 0.02347
7.92600 0.11286
7.92800 0.02352
7.93000 -0.01544
7.93200 0.09090
7.93400 0.01322
7.93600 -0.05854
7.93800 -0.00135
7.94000 -0.06780
7.94200 0.00853
7.94400 -0.07774
7.94600 0.06835
7.94800 0.11278
7.95000 0.07585
7.95200 -0.01772
7.95400 -0.02896
7.95600 0.07663
7.95800 0.06452
7.96000 -0.01715
7.96200 -0.01396
7.96400 -0.01126
7.96600 -0.04702
7.96800 -0.02356
7.97000 0.08537
7.97200 0.01787
7.97400 0.03264
7.97600 0.01457
7.97800 0.00305
7.98000 0.00727
7.98200 -0.02761
7.98400 0.10544
7.98600 0.02375
7.98800 -0.01440
7.99000 0.03482
7.99200 -0.11582
7.99400 -0.01664
7.99600 -0.01141
7.99800 -0.06454
8.00000 0.02113
8.00200 0.05380
8.00400 0.02925
8.00600 -0.00393
8.00800 0.00109
8.01000 0.06474
8.01200 -0.00839
8.01400 0.04971
8.01600 -0.02696
8.01800 0.04718
8.02000 0.04613
8.02200 0.04573
8.02400 -0.03099
8.02600 0.09010
8.02800 0.04350
8.03000 -0.03730
8.03200 0.07256
8.03400 -0.07896
8.03600 0.05252
8.03800 0.01307
8.04000 0.06492
8.04200 -0.13484
8.04400 0.02922
8.04600 0.01261
8.04800 0.00982
8.05000 -0.15124
8.05200 -0.10047
8.05400 -0.01797
8.05600 0.03288
8.05800 -0.05108
8.06000 -0.09134
8.06200 -0.15448
8.06400 -0.04758
8.06600 -0.00683
8.06800 0.00983
8.07000 -0.04727
8.07200 -0.04589
8.07400 -0.06136
8.07600 -0.00105
8.07800 -0.06383
8.08000 -0.04016
8.08200 -0.01695
8.08400 -0.01094
8.08600 0.10415
8.08800 0.03900
8.09000 0.04971
8.09200 0.09107
8.09400 0.03210
8.09600 -0.01006
8.09800 -0.05337
8.10000 -0.02675
8.10200 0.05448
8.10400 -0.02081
8.10600 -0.01784
8.10800 0.05680
8.11000 -0.08803
8.11200 -0.06292
8.11400 -0.09307
8.11600 -0.04370
8.11800 0.10326
8.12000 -0.03928
8.12200 -0.01290
8.12400 0.00065
8.12600 0.02513
8.12800 0.04080
8.13000 0.05602
8.13200 0.05773
8.13400 -0.02530
8.13600 -0.01666
8.13800 -0.06203
8.14000 0.00952
8.14200 -0.04885
8.14400 0.07086
8.14600 0.04693
8.14800 -0.10079
8.15000 0.01478
8.15200 0.03021
8.15400 -0.02449
8.15600 0.04177
8.15800 -0.02241
8.16000 0.00507
8.16200 -0.02898
8.16400 0.04437
8.16600 0.01681
8.16800 0.02769
8.17000 0.01610
8.17200 0.05692
8.17400 0.11395
8.17600 0.01669
8.17800 0.08302
8.18000 -0.02659
8.18200 -0.05183
8.18400 0.02683
8.18600 0.12939
8.18800 0.01577
8.19000 0.03279
8.19200 0.05479
8.19400 0.02322
8.19600 -0.00817
8.19800 0.04461
8.20000 0.00624
8.20200 0.06153
8.20400 -0.04421
8.20600 0.04424
8.20800 0.01012
8.21000 0.08794
8.21200 0.02530
8.21400 -0.03882
8.21600 0.00084
8.21800 -0.08789
8.22000 0.05003
8.22200 0.00379
8.22400 0.16743
8.22600 -0.03672
8.22800 -0.04808
8.23000 0.13402
8.23200 -0.03003
8.23400 0.05743
8.23600 -0.06617
8.23800 -0.08134
8.24000 -0.00690
8.24200 -0.13592
8.24400 -0.00566
8.24600 0.05778
8.24800 -0.04068
8.25000 0.08883
8.25200 -0.02803
8.25400 0.04511
8.25600 0.02198
8.25800 0.09288
8.26000 0.25621
8.26200 0.81768
8.26400 1.45610
8.26600 1.42793
8.26800 0.90147
8.27000 0.43213
8.27200 0.14669
8.27400 0.03212
8.27600 -0.04320
8.27800 -0.02524
8.28000 -0.09957
8.28200 0.07036
8.28400 0.01130
8.28600 0.03038
8.28800 -0.11050
8.29000 0.10106
8.29200 -0.08866
8.29400 -0.00731
8.29600 -0.03868
8.29800 -0.03945
8.30000 -0.01342
8.30200 -0.00268
8.30400 -0.08597
8.30600 -0.09855
8.30800 -0.03436
8.31000 -0.05951
8.31200 0.04741
8.31400 -0.01057
8.31600 0.07463
8.31800 0.04201
8.32000 0.07410
8.32200 -0.00941
8.32400 -0.00149
8.32600 0.01251
8.32800 -0.06421
8.33000 0.07260
8.33200 -0.03340
8.33400 -0.07506
8.33600 -0.04273
8.33800 0.07491
8.34000 0.00343
8.34200 0.00751
8.34400 0.01091
8.34600 0.05651
8.34800 0.04454
8.35000 -0.04564
8.35200 -0.00461
8.35400 0.01628
8.35600 -0.02048
8.35800 -0.03288
8.36000 -0.04756
8.36200 0.00425
8.36400 -0.04501
8.36600 -0.05824
8.36800 0.08489
8.37000 -0.03121
8.37200 -0.04274
8.37400 -0.08131
8.37600 0.11500
8.37800 0.02453
8.38000 0.00509
8.38200 0.01283
8.38400 0.04520
8.38600 0.11015
8.38800 0.06822
8.39000 -0.05820
8.39200 0.06273
8.39400 0.02791
8.39600 0.04478
8.39800 -0.15200
8.40000 -0.02668
8.40200 0.05186
8.40400 -0.01091
8.40600 0.06537
8.40800 -0.04366
8.41000 0.01638
8.41200 0.02714
8.41400 0.00305
8.41600 -0.01201
8.41800 0.00288
8.42000 -0.07458
8.42200 0.00582
8.42400 -0.01146
8.42600 0.05131
8.42800 0.01076
8.43000 0.03831
8.43200 -0.01129
8.43400 0.14945
8.43600 -0.01854
8.43800 0.07639
8.44000 -0.05154
8.44200 -0.06201
8.44400 -0.03971
8.44600 -0.01899
8.44800 0.04882
8.45000 0.03829
8.45200 -0.07966
8.45400 0.06050
8.45600 -0.01106
8.45800 0.02375
8.46000 0.02477
8.46200 -0.06502
8.46400 0.02634
8.46600 -0.04225
8.46800 0.01137
8.47000 0.07474
8.47200 -0.06873
8.47400 0.06275
8.47600 -0.05926
8.47800 -0.07854
8.48000 -0.04262
8.48200 -0.01883
8.48400 -0.00636
8.48600 -0.09214
8.48800 -0.06943
8.49000 -0.06328
8.49200 0.15692
8.49400 0.12277
8.49600 0.02604
8.49800 -0.01996
8.50000 -0.02577
8.50200 -0.00172
8.50400 0.05721
8.50600 0.08501
8.50800 0.04275
8.51000 -0.01127
8.51200 0.05174
8.51400 -0.05804
8.51600 -0.00866
8.51800 0.02181
8.52000 -0.01981
8.52200 0.03044
8.52400 -0.11450
8.52600 -0.03546
8.52800 -0.03194
8.53000 -0.01192
8.53200 0.06658
8.53400 0.08792
8.53600 0.00416
8.53800 0.05925
8.54000 0.13119
8.54200 0.02831
8.54400 0.02539
8.54600 0.00429
8.54800 0.04147
8.55000 0.05116
8.55200 0.00276
8.55400 0.05686
8.55600 0.09952
8.55800 -0.06910
8.56000 0.02274
8.56200 0.04217
8.56400 -0.00511
8.56600 -0.05967
8.56800 -0.05145
8.57000 0.03539
8.57200 0.01810
8.57400 -0.04696
8.57600 0.00858
8.57800 -0.01333
8.58000 0.05702
8.58200 0.02806
8.58400 0.12084
8.58600 0.01878
8.58800 0.04613
8.59000 -0.00766
8.59200 0.03424
8.59400 -0.04704
8.59600 -0.17515
8.59800 0.08374
8.60000 -0.01977
8.60200 0.10052
8.60400 0.10861
8.60600 -0.07992
8.60800 -0.06281
8.61000 -0.14597
8.61200 0.04495
8.61400 -0.05152
8.61600 0.00855
8.61800 0.09322
8.62000 -0.01292
8.62200 -0.00422
8.62400 -0.06939
8.62600 -0.01433
8.62800 0.04264
8.63000 -0.03666
8.63200 0.02306
8.63400 -0.06911
8.63600 -0.05046
8.63800 -0.04540
8.64000 -0.00064
8.64200 0.05275
8.64400 -0.07647
8.64600 0.01858
8.64800 0.04555
8.65000 -0.00673
8.65200 0.16848
8.65400 -0.06919
8.65600 -0.03191
8.65800 -0.07439
8.66000 0.03226
8.66200 0.03954
8.66400 -0.06184
8.66600 0.04906
8.66800 -0.06699
8.67000 0.05025
8.67200 -0.02157
8.67400 -0.12101
8.67600 -0.06396
8.67800 0.00615
8.68000 0.02624
8.68200 0.06604
8.68400 -0.11039
8.68600 0.10230
8.68800 0.04169
8.69000 0.09280
8.69200 0.13260
8.69400 -0.02808
8.69600 0.00385
8.69800 0.05326
8.70000 0.09284
8.70200 0.02491
8.70400 -0.03560
8.70600 -0.01232
8.70800 0.06455
8.71000 0.00180
8.71200 -0.02514
8.71400 0.12559
8.71600 0.01398
8.71800 0.01767
8.72000 0.08032
8.72200 -0.06111
8.72400 -0.04792
8.72600 -0.01190
8.72800 -0.02850
8.73000 -0.00934
8.73200 -0.07369
8.73400 0.01725
8.73600 -0.00352
8.73800 0.06178
8.74000 -0.01383
8.74200 -0.02361
8.74400 0.07493
8.74600 0.02321
8.74800 -0.01409
8.75000 0.13809
8.75200 -0.07530
8.75400 0.08700
8.75600 -0.03948
8.75800 -0.03138
8.76000 0.05564
8.76200 0.00791
8.76400 0.05487
8.76600 0.03575
8.76800 0.00909
8.77000 0.03756
8.77200 0.10686
8.77400 0.03328
8.77600 0.13023
8.77800 -0.06633
8.78000 -0.07252
8.78200 -0.02128
8.78400 -0.00846
8.78600 0.06546
8.78800 0.03694
8.79000 -0.05423
8.79200 0.04294
8.79400 -0.00410
8.79600 -0.04693
8.79800 -0.04670
8.80000 -0.14747
8.80200 -0.04917
8.80400 -0.04557
8.80600 -0.03914
8.80800 -0.01062
8.81000 -0.00318
8.81200 0.08189
8.81400 0.02479
8.81600 0.05824
8.81800 -0.06642
8.82000 0.00879
8.82200 0.01557
8.82400 -0.03436
8.82600 -0.10672
8.82800 -0.04883
8.83000 -0.04097
8.83200 -0.00302
8.83400 0.05048
8.83600 -0.05155
8.83800 0.00092
8.84000 -0.06122
8.84200 0.00409
8.84400 -0.02405
8.84600 0.12083
8.84800 0.03276
8.85000 -0.01015
8.85200 -0.02298
8.85400 -0.04051
8.85600 -0.09259
8.85800 0.00730
8.86000 0.06101
8.86200 0.00522
8.86400 0.05121
8.86600 -0.00779
8.86800 0.09824
8.87000 0.06730
8.87200 0.33692
8.87400 0.70715
8.87600 1.31268
8.87800 1.50544
8.88000 1.08306
8.88200 0.50239
8.88400 0.14122
8.88600 0.16413
8.88800 -0.03215
8.89000 -0.01239
8.89200 0.06554
8.89400 -0.01889
8.89600 -0.07399
8.89800 0.00820
8.90000 0.04656
8.90200 0.00902
8.90400 -0.06034
8.90600 0.03417
8.90800 -0.09160
8.91000 0.03454
8.91200 0.05137
8.91400 -0.06128
8.91600 0.08270
8.91800 -0.02043
8.92000 -0.01959
8.92200 0.02637
8.92400 -0.05924
8.92600 -0.05945
8.92800 0.00382
8.93000 -0.16877
8.93200 -0.04776
8.93400 0.03352
8.93600 -0.01954
8.93800 -0.04585
8.94000 -0.17181
8.94200 0.04247
8.94400 -0.01678
8.94600 0.14234
8.94800 -0.08044
8.95000 0.10014
8.95200 -0.02133
8.95400 0.00226
8.95600 -0.10355
8.95800 0.10574
8.96000 0.05993
8.96200 -0.10309
8.96400 -0.05256
8.96600 -0.08970
8.96800 0.02381
8.97000 0.05249
8.97200 0.07420
8.97400 0.09230
8.97600 -0.02050
8.97800 0.03172
8.98000 0.00669
8.98200 0.04616
8.98400 0.03661
8.98600 -0.01259
8.98800 -0.01948
8.99000 -0.00286
8.99200 -0.01463
8.99400 0.03046
8.99600 -0.05881
8.99800 0.04451
9.00000 0.01211
9.00200 -0.03311
9.00400 -0.07047
9.00600 -0.01375
9.00800 -0.02943
9.01000 -0.02070
9.01200 0.01080
9.01400 -0.00041
9.01600 -0.01694
9.01800 -0.03858
9.02000 0.07157
9.02200 -0.05811
9.02400 0.03108
9.02600 -0.11297
9.02800 -0.00643
9.03000 0.05088
9.03200 -0.09757
9.03400 -0.00653
9.03600 -0.00741
9.03800 0.01086
9.04000 -0.07134
9.04200 0.06667
9.04400 0.06346
9.04600 0.09245
9.04800 0.07127
9.05000 0.12769
9.05200 0.00279
9.05400 -0.03838
9.05600 -0.04059
9.05800 0.02496
9.06000 -0.05177
9.06200 -0.00717
9.06400 -0.01478
9.06600 0.03713
9.06800 0.05044
9.07000 0.05684
9.07200 0.00187
9.07400 0.05783
9.07600 0.00259
9.07800 0.03139
9.08000 0.11891
9.08200 0.05311
9.08400 0.10564
9.08600 -0.04935
9.08800 -0.04783
9.09000 0.06955
9.09200 0.02129
9.09400 0.13123
9.09600 -0.01111
9.09800 -0.00911
9.10000 0.02834
9.10200 0.04619
9.10400 0.02110
9.10600 -0.04029
9.10800 -0.03996
9.11000 -0.00129
9.11200 0.03327
9.11400 0.01261
9.11600 0.04640
9.11800 0.03295
9.12000 -0.09579
9.12200 -0.10294
9.12400 -0.05136
9.12600 -0.11084
9.12800 0.01920
9.13000 -0.08274
9.13200 0.05563
9.13400 0.12304
9.13600 0.03286
9.13800 -0.00629
9.14000 -0.05582
9.14200 -0.01366
9.14400 0.01203
9.14600 -0.13412
9.14800 -0.02685
9.15000 0.02234
9.15200 0.02486
9.15400 0.00925
9.15600 0.01676
9.15800 0.02701
9.16000 0.05227
9.16200 -0.08664
9.16400 0.00619
9.16600 -0.12670
9.16800 -0.00305
9.17000 -0.00553
9.17200 -0.00166
9.17400 -0.01406
9.17600 0.04692
9.17800 0.06199
9.18000 -0.09574
9.18200 -0.01301
9.18400 -0.06270
9.18600 -0.00014
9.18800 -0.05114
9.19000 0.02836
9.19200 -0.01453
9.19400 -0.08622
9.19600 0.07227
9.19800 -0.05499
9.20000 -0.03090
9.20200 -0.02911
9.20400 -0.02464
9.20600 0.05817
9.20800 0.09936
9.21000 -0.05588
9.21200 -0.06506
9.21400 -0.11327
9.21600 0.02736
9.21800 -0.12584
9.22000 -0.03698
9.22200 0.07688
9.22400 0.03937
9.22600 0.06544
9.22800 0.06177
9.23000 0.05477
9.23200 0.06322
9.23400 -0.01027
9.23600 -0.01984
9.23800 0.00080
9.24000 -0.04299
9.24200 -0.00060
9.24400 -0.06395
9.24600 -0.01279
9.24800 -0.06347
9.25000 -0.07105
9.25200 0.00880
9.25400 0.01280
9.25600 -0.03101
9.25800 -0.06411
9.26000 0.04123
9.26200 -0.00315
9.26400 -0.00057
9.26600 -0.06437
9.26800 0.09332
9.27000 0.00703
9.27200 0.06667
9.27400 -0.12024
9.27600 -0.17559
9.27800 0.11803
9.28000 0.08488
9.28200 -0.05021
9.28400 0.00669
9.28600 -0.01169
9.28800 0.03507
9.29000 -0.07765
9.29200 -0.03191
9.29400 -0.12127
9.29600 -0.06746
9.29800 -0.09850
9.30000 0.02325
9.30200 -0.05853
9.30400 -0.00208
9.30600 -0.03879
9.30800 0.14256
9.31000 0.08460
9.31200 -0.00792
9.31400 0.03074
9.31600 0.15531
9.31800 0.03618
9.32000 -0.02151
9.32200 -0.00353
9.32400 0.00528
9.32600 0.00902
9.32800 0.05655
9.33000 -0.08306
9.33200 0.11107
9.33400 0.07310
9.33600 0.05293
9.33800 0.00618
9.34000 -0.02309
9.34200 -0.03263
9.34400 -0.03253
9.34600 -0.17539
9.34800 0.04676
9.35000 0.08962
9.35200 -0.00498
9.35400 -0.06199
9.35600 0.07487
9.35800 -0.00363
9.36000 0.01646
9.36200 0.06829
9.36400 0.02023
9.36600 0.01862
9.36800 -0.07729
9.37000 -0.01495
9.37200 -0.08792
9.37400 -0.03413
9.37600 -0.02236
9.37800 -0.02073
9.38000 -0.01507
9.38200 0.06307
9.38400 -0.13018
9.38600 0.04738
9.38800 -0.08880
9.39000 -0.05244
9.39200 0.00677
9.39400 -0.05270
9.39600 -0.04054
9.39800 -0.01010
9.40000 0.02399
9.40200 -0.01843
9.40400 0.01467
9.40600 -0.06524
9.40800 -0.05599
9.41000 -0.03644
9.41200 -0.02678
9.41400 -0.00114
9.41600 0.02228
9.41800 -0.04456
9.42000 0.00055
9.42200 -0.07329
9.42400 0.04313
9.42600 0.05259
9.42800 -0.03873
9.43000 0.04728
9.43200 -0.07321
9.43400 -0.00439
9.43600 -0.03703
9.43800 -0.04732
9.44000 -0.02079
9.44200 0.10879
9.44400 0.06546
9.44600 -0.07187
9.44800 -0.03702
9.45000 0.09423
9.45200 0.01085
9.45400 0.04419
9.45600 0.00482
9.45800 0.00819
9.46000 0.08815
9.46200 -0.04016
9.46400 -0.04531
9.46600 0.02415
9.46800 -0.05230
9.47000 0.15567
9.47200 -0.05020
9.47400 0.08277
9.47600 0.06595
9.47800 -0.12590
9.48000 -0.01878
9.48200 -0.06179
9.48400 0.20347
9.48600 0.61645
9.48800 1.26859
9.49000 1.50820
9.49200 1.26443
9.49400 0.55498
9.49600 0.12468
9.49800 0.00521
9.50000 -0.01152
9.50200 0.06044
9.50400 -0.02082
9.50600 -0.06576
9.50800 0.00760
9.51000 0.09593
9.51200 -0.08187
9.51400 -0.04465
9.51600 0.06902
9.51800 -0.04749
9.52000 -0.00996
9.52200 -0.00540
9.52400 -0.05975
9.52600 0.07162
9.52800 0.06076
9.53000 0.07597
9.53200 0.03838
9.53400 0.02081
9.53600 0.03414
9.53800 -0.04009
9.54000 0.00549
9.54200 -0.10748
9.54400 0.05531
9.54600 0.03119
9.54800 0.05013
9.55000 -0.01383
9.55200 -0.04934
9.55400 -0.03780
9.55600 -0.01652
9.55800 -0.00231
9.56000 0.05531
9.56200 0.10807
9.56400 -0.04099
9.56600 0.08766
9.56800 0.09775
9.57000 0.11340
9.57200 -0.00858
9.57400 -0.07191
9.57600 -0.03057
9.57800 -0.00356
9.58000 -0.01064
9.58200 0.07654
9.58400 -0.00034
9.58600 -0.05590
9.58800 -0.07098
9.59000 0.13551
9.59200 -0.00038
9.59400 0.01757
9.59600 -0.06738
9.59800 -0.06247
9.60000 -0.09424
9.60200 0.00253
9.60400 -0.01296
9.60600 0.06198
9.60800 0.05797
9.61000 0.03836
9.61200 0.03144
9.61400 0.09246
9.61600 0.06619
9.61800 -0.00910
9.62000 0.06791
9.62200 -0.09884
9.62400 0.00379
9.62600 0.08403
9.62800 0.01342
9.63000 -0.03476
9.63200 0.07972
9.63400 -0.03836
9.63600 -0.07269
9.63800 0.05371
9.64000 -0.01698
9.64200 0.06942
9.64400 0.02483
9.64600 0.00217
9.64800 -0.02957
9.65000 0.01376
9.65200 -0.05642
9.65400 -0.05890
9.65600 0.05988
9.65800 -0.03077
9.66000 -0.03424
9.66200 -0.13154
9.66400 -0.00809
9.66600 -0.04843
9.66800 0.01162
9.67000 -0.09327
9.67200 -0.00885
9.67400 -0.08560
9.67600 -0.02962
9.67800 0.03783
9.68000 -0.14351
9.68200 0.08727
9.68400 -0.02460
9.68600 0.07644
9.68800 -0.07128
9.69000 0.00551
9.69200 -0.08554
9.69400 -0.02588
9.69600 -0.06705
9.69800 -0.04510
9.70000 -0.01610
9.70200 0.02297
9.70400 -0.03219
9.70600 0.01232
9.70800 0.02005
9.71000 -0.01399
9.71200 -0.02246
9.71400 0.01664
9.71600 0.05292
9.71800 0.10224
9.72000 -0.00992
9.72200 0.04257
9.72400 0.10236
9.72600 -0.06922
9.72800 0.00215
9.73000 0.07246
9.73200 0.02640
9.73400 -0.05700
9.73600 -0.08843
9.73800 0.01501
9.74000 0.01909
9.74200 -0.00724
9.74400 0.04966
9.74600 -0.03693
9.74800 -0.00055
9.75000 0.08027
9.75200 0.03784
9.75400 0.02975
9.75600 0.05961
9.75800 -0.03749
9.76000 -0.02919
9.76200 -0.07691
9.76400 0.14824
9.76600 -0.00958
9.76800 0.00992
9.77000 0.02540
9.77200 0.06274
9.77400 -0.02986
9.77600 -0.05417
9.77800 0.10956
9.78000 0.09487
9.78200 0.05768
9.78400 0.02938
9.78600 -0.04151
9.78800 -0.09130
9.79000 0.00883
9.79200 0.00487
9.79400 0.12795
9.79600 0.02700
9.79800 -0.02079
9.80000 0.04189
9.80200 0.02516
9.80400 -0.13823
9.80600 -0.02130
9.80800 -0.07044
9.81000 -0.01620
9.81200 -0.06976
9.81400 0.04526
9.81600 0.06705
9.81800 0.08332
9.82000 0.02671
9.82200 -0.04428
9.82400 -0.06769
9.82600 0.07325
9.82800 0.02173
9.83000 0.12135
9.83200 0.06739
9.83400 0.00041
9.83600 -0.04042
9.83800 0.01491
9.84000 -0.10544
9.84200 0.03730
9.84400 -0.06346
9.84600 -0.03396
9.84800 0.09517
9.85000 -0.11259
9.85200 -0.00377
9.85400 0.03096
9.85600 -0.22822
9.85800 -0.16500
9.86000 -0.02964
9.86200 -0.03809
9.86400 0.03794
9.86600 -0.06411
9.86800 -0.04734
9.87000 0.01860
9.87200 -0.01422
9.87400 0.09182
9.87600 0.11036
9.87800 0.00066
9.88000 0.05803
9.88200 0.04290
9.88400 0.05490
9.88600 0.02702
9.88800 -0.03262
9.89000 0.10016
9.89200 0.00163
9.89400 -0.01553
9.89600 0.07825
9.89800 -0.06991
9.90000 0.00046
9.90200 -0.01592
9.90400 0.06520
9.90600 -0.05583
9.90800 0.02035
9.91000 0.02921
9.91200 -0.03589
9.91400 0.03163
9.91600 -0.05025
9.91800 0.04634
9.92000 -0.00221
9.92200 0.01934
9.92400 -0.07291
9.92600 0.04082
9.92800 -0.05274
9.93000 0.01604
9.93200 -0.06203
9.93400 0.07515
9.93600 0.01530
9.93800 0.01821
9.94000 0.06672
9.94200 0.03787
9.94400 0.10579
9.94600 -0.07016
9.94800 -0.05729
9.95000 -0.07799
9.95200 -0.12059
9.95400 0.02985
9.95600 -0.08270
9.95800 0.08057
9.96000 -0.05640
9.96200 0.14765
9.96400 -0.03130
9.96600 0.03363
9.96800 0.20980
9.97000 -0.06113
9.97200 -0.01331
9.97400 0.03059
9.97600 -0.18519
9.97800 -0.03392
9.98000 0.02734
9.98200 -0.04373
9.98400 -0.06278
9.98600 0.02006
9.98800 -0.01645
9.99000 -0.05095
9.99200 -0.07517
9.99400 0.04132
9.99600 -0.02372
9.99800 0.03801
