cas[s]  ekg[mV]
0.00000 -0.05732
0.00200 0.11594
0.00400 0.09569
0.00600 -0.05011
0.00800 0.03314
0.01000 -0.09680
0.01200 0.04890
0.01400 -0.02502
0.01600 0.14427
0.01800 0.00857
0.02000 -0.02528
0.02200 0.03798
0.02400 0.01766
0.02600 0.15149
0.02800 0.01971
0.03000 -0.04698
0.03200 -0.12277
0.03400 -0.01856
0.03600 0.06243
0.03800 0.05478
0.04000 0.08994
0.04200 -0.12547
0.04400 0.03446
0.04600 0.12073
0.04800 0.02930
0.05000 -0.06825
0.05200 0.03527
0.05400 0.02155
0.05600 -0.06211
0.05800 0.02599
0.06000 -0.00056
0.06200 -0.07192
0.06400 0.12954
0.06600 0.00498
0.06800 0.00361
0.07000 -0.01443
0.07200 -0.01123
0.07400 -0.02354
0.07600 -0.02857
0.07800 -0.03316
0.08000 -0.08695
0.08200 -0.08169
0.08400 -0.00502
0.08600 0.03313
0.08800 -0.04735
0.09000 0.03471
0.09200 0.05075
0.09400 0.07975
0.09600 -0.05340
0.09800 0.00877
0.10000 0.02512
0.10200 0.02579
0.10400 -0.07234
0.10600 0.08490
0.10800 0.03368
0.11000 -0.12989
0.11200 -0.06972
0.11400 0.00829
0.11600 -0.07022
0.11800 0.10124
0.12000 -0.13086
0.12200 -0.03103
0.12400 0.02846
0.12600 0.03815
0.12800 0.03770
0.13000 -0.00355
0.13200 0.07142
0.13400 -0.03254
0.13600 -0.05491
0.13800 -0.02442
0.14000 -0.09511
0.14200 -0.00255
0.14400 0.03178
0.14600 0.04769
0.14800 0.01046
0.15000 -0.02511
0.15200 -0.08345
0.15400 0.04992
0.15600 -0.01131
0.15800 -0.00553
0.16000 0.04331
0.16200 0.03904
0.16400 -0.06918
0.16600 0.06028
0.16800 -0.11248
0.17000 0.01270
0.17200 0.00009
0.17400 -0.05649
0.17600 0.02418
0.17800 -0.01363
0.18000 -0.03244
0.18200 0.07009
0.18400 -0.01878
0.18600 -0.06047
0.18800 -0.06221
0.19000 -0.07906
0.19200 0.07565
0.19400 -0.06528
0.19600 0.03183
0.19800 0.04707
0.20000 0.03728
0.20200 0.03342
0.20400 0.06355
0.20600 0.00177
0.20800 -0.01277
0.21000 -0.02176
0.21200 -0.14414
0.21400 -0.02672
0.21600 -0.00057
0.21800 -0.01759
0.22000 -0.02540
0.22200 0.06700
0.22400 0.05294
0.22600 0.07166
0.22800 0.05605
0.23000 0.01320
0.23200 0.01106
0.23400 0.09265
0.23600 0.05695
0.23800 0.01221
0.24000 0.00557
0.24200 0.12566
0.24400 0.01510
0.24600 -0.05110
0.24800 0.00557
0.25000 0.00833
0.25200 -0.03870
0.25400 -0.03749
0.25600 -0.08629
0.25800 -0.05656
0.26000 0.05235
0.26200 -0.00811
0.26400 0.01983
0.26600 0.06396
0.26800 -0.00659
0.27000 -0.03886
0.27200 0.01075
0.27400 -0.03928
0.27600 -0.04526
0.27800 -0.04891
0.28000 -0.10047
0.28200 -0.03380
0.28400 0.04776
0.28600 0.09334
0.28800 0.01001
0.29000 0.13621
0.29200 0.36853
0.29400 0.96713
0.29600 1.40767
0.29800 1.45124
0.30000 0.91798
0.30200 0.39394
0.30400 0.11486
0.30600 0.02120
0.30800 -0.01596
0.31000 0.01423
0.31200 0.09692
0.31400 -0.16257
0.31600 0.07379
0.31800 0.04568
0.32000 0.11641
0.32200 0.02893
0.32400 0.02551
0.32600 0.01326
0.32800 0.01198
0.33000 -0.04716
0.33200 -0.02179
0.33400 -0.00523
0.33600 -0.01336
0.33800 -0.09882
0.34000 0.04967
0.34200 0.08843
0.34400 0.04797
0.34600 -0.00475
0.34800 -0.01131
0.35000 -0.00506
0.35200 0.04731
0.35400 0.06400
0.35600 0.02114
0.35800 0.04652
0.36000 0.05373
0.36200 0.03466
0.36400 -0.04149
0.36600 0.00810
0.36800 0.03596
0.37000 0.08202
0.37200 0.00676
0.37400 -0.08907
0.37600 -0.07093
0.37800 0.02534
0.38000 0.06966
0.38200 0.05200
0.38400 -0.00477
0.38600 0.04708
0.38800 -0.02388
0.39000 0.09472
0.39200 0.01876
0.39400 -0.04011
0.39600 0.06949
0.39800 0.04698
0.40000 -0.02939
0.40200 -0.10650
0.40400 -0.07429
0.40600 0.10858
0.40800 0.08745
0.41000 0.13860
0.41200 0.02968
0.41400 -0.04389
0.41600 -0.06191
0.41800 0.00539
0.42000 0.03866
0.42200 0.12464
0.42400 -0.00794
0.42600 -0.04237
0.42800 -0.01634
0.43000 0.01795
0.43200 -0.04581
0.43400 0.03896
0.43600 -0.05019
0.43800 -0.02877
0.44000 0.00416
0.44200 -0.09359
0.44400 -0.05426
0.44600 -0.00678
0.44800 -0.02128
0.45000 -0.02892
0.45200 0.04044
0.45400 0.06994
0.45600 -0.04586
0.45800 -0.06679
0.46000 0.05515
0.46200 0.03389
0.46400 -0.02583
0.46600 -0.04584
0.46800 0.10594
0.47000 -0.10085
0.47200 0.05432
0.47400 0.02128
0.47600 -0.00469
0.47800 0.06984
0.48000 -0.07023
0.48200 -0.04781
0.48400 -0.00093
0.48600 0.11004
0.48800 -0.01695
0.49000 0.18087
0.49200 0.02085
0.49400 -0.01809
0.49600 -0.04384
0.49800 -0.10065
0.50000 0.00284
0.50200 0.02521
0.50400 0.03188
0.50600 0.06510
0.50800 0.04045
0.51000 0.03981
0.51200 -0.00575
0.51400 -0.05294
0.51600 0.10569
0.51800 -0.10392
0.52000 -0.07670
0.52200 0.00138
0.52400 0.07972
0.52600 0.04582
0.52800 -0.08377
0.53000 0.01291
0.53200 -0.05837
0.53400 -0.01205
0.53600 -0.09387
0.53800 0.01628
0.54000 0.04362
0.54200 0.04595
0.54400 0.07315
0.54600 -0.04609
0.54800 0.05619
0.55000 -0.00908
0.55200 -0.04312
0.55400 0.16490
0.55600 0.01345
0.55800 -0.02118
0.56000 0.00206
0.56200 0.02472
0.56400 -0.02362
0.56600 0.12368
0.56800 0.17426
0.57000 -0.03217
0.57200 -0.03499
0.57400 -0.04816
0.57600 -0.02956
0.57800 -0.05188
0.58000 -0.12168
0.58200 -0.01430
0.58400 -0.00536
0.58600 -0.04098
0.58800 0.05645
0.59000 -0.04615
0.59200 -0.07804
0.59400 -0.00924
0.59600 0.12326
0.59800 -0.11212
0.60000 -0.05903
0.60200 0.14104
0.60400 -0.06362
0.60600 -0.10195
0.60800 -0.03083
0.61000 0.10979
0.61200 0.04658
0.61400 0.03404
0.61600 -0.07821
0.61800 -0.07106
0.62000 -0.08002
0.62200 -0.01069
0.62400 0.04043
0.62600 0.06568
0.62800 -0.12994
0.63000 0.00355
0.63200 -0.07409
0.63400 0.03128
0.63600 -0.03344
0.63800 0.13551
0.64000 -0.03572
0.64200 0.02674
0.64400 -0.02081
0.64600 0.08665
0.64800 -0.07503
0.65000 -0.04461
0.65200 0.05787
0.65400 0.07376
0.65600 0.01979
0.65800 -0.01386
0.66000 -0.05104
0.66200 0.04914
0.66400 -0.12215
0.66600 -0.09459
0.66800 0.01464
0.67000 0.05709
0.67200 0.12186
0.67400 -0.08995
0.67600 -0.00800
0.67800 0.05853
0.68000 0.07040
0.68200 0.04695
0.68400 0.11394
0.68600 0.00625
0.68800 0.06114
0.69000 -0.08187
0.69200 0.00228
0.69400 0.10498
0.69600 0.05423
0.69800 0.03097
0.70000 0.05020
0.70200 0.00035
0.70400 -0.03321
0.70600 -0.03082
0.70800 0.04462
0.71000 -0.05316
0.71200 0.00514
0.71400 -0.00113
0.71600 -0.01920
0.71800 -0.07639
0.72000 -0.00018
0.72200 -0.01504
0.72400 0.05391
0.72600 0.00809
0.72800 0.04886
0.73000 0.04390
0.73200 0.03185
0.73400 0.01810
0.73600 -0.04269
0.73800 0.02579
0.74000 0.01037
0.74200 -0.10326
0.74400 -0.06977
0.74600 -0.02130
0.74800 0.02186
0.75000 -0.06313
0.75200 0.10692
0.75400 0.03042
0.75600 -0.02434
0.75800 0.00029
0.76000 0.11851
0.76200 0.06008
0.76400 0.07012
0.76600 0.00296
0.76800 0.03527
0.77000 0.06008
0.77200 0.02625
0.77400 -0.08571
0.77600 -0.08152
0.77800 0.21445
0.78000 -0.07888
0.78200 -0.07776
0.78400 -0.01332
0.78600 0.05990
0.78800 0.04326
0.79000 0.01766
0.79200 -0.02855
0.79400 -0.07228
0.79600 0.04391
0.79800 0.11326
0.80000 0.03109
0.80200 0.03591
0.80400 -0.07687
0.80600 0.05058
0.80800 -0.01483
0.81000 0.03299
0.81200 -0.03714
0.81400 0.00271
0.81600 0.01433
0.81800 0.00622
0.82000 0.05725
0.82200 -0.00660
0.82400 -0.13022
0.82600 -0.05491
0.82800 0.07931
0.83000 -0.11301
0.83200 0.04810
0.83400 -0.01283
0.83600 0.01405
0.83800 0.01770
0.84000 -0.00106
0.84200 0.03124
0.84400 -0.00672
0.84600 0.06130
0.84800 -0.06311
0.85000 0.07606
0.85200 -0.02237
0.85400 0.02824
0.85600 0.03838
0.85800 -0.07807
0.86000 -0.02998
0.86200 0.01341
0.86400 -0.09106
0.86600 0.03901
0.86800 0.01097
0.87000 -0.01071
0.87200 0.05748
0.87400 0.07347
0.87600 0.04405
0.87800 0.13682
0.88000 0.09450
0.88200 -0.10879
0.88400 0.09758
0.88600 0.30449
0.88800 0.98512
0.89000 1.34224
0.89200 1.43857
0.89400 0.83066
0.89600 0.38835
0.89800 0.13975
0.90000 0.08661
0.90200 0.01132
0.90400 -0.02506
0.90600 -0.06958
0.90800 -0.05299
0.91000 -0.05275
0.91200 0.05624
0.91400 0.14261
0.91600 -0.07275
0.91800 -0.09492
0.92000 -0.01658
0.92200 0.02186
0.92400 0.07102
0.92600 -0.02703
0.92800 0.06872
0.93000 0.05093
0.93200 0.07919
0.93400 -0.03149
0.93600 0.02309
0.93800 -0.07603
0.94000 0.01636
0.94200 -0.11506
0.94400 -0.02351
0.94600 -0.07667
0.94800 -0.03556
0.95000 0.01649
0.95200 0.02668
0.95400 -0.07878
0.95600 0.19905
0.95800 -0.04050
0.96000 -0.04076
0.96200 -0.12556
0.96400 -0.01343
0.96600 0.00104
0.96800 -0.00765
0.97000 -0.04125
0.97200 0.05472
0.97400 0.03998
0.97600 0.01241
0.97800 0.06959
0.98000 -0.07486
0.98200 -0.06647
0.98400 -0.06193
0.98600 -0.08826
0.98800 0.07541
0.99000 0.01846
0.99200 0.03845
0.99400 0.07498
0.99600 0.09043
0.99800 0.04064
1.00000 0.03037
1.00200 0.06864
1.00400 0.14262
1.00600 -0.03691
1.00800 -0.05150
1.01000 -0.11462
1.01200 -0.03846
1.01400 -0.00328
1.01600 -0.00857
1.01800 -0.12719
1.02000 0.04482
1.02200 -0.00137
1.02400 0.00354
1.02600 0.04618
1.02800 0.02916
1.03000 -0.03199
1.03200 0.00487
1.03400 -0.04448
1.03600 0.01826
1.03800 0.04739
1.04000 0.02391
1.04200 0.02117
1.04400 -0.01302
1.04600 -0.03267
1.04800 -0.11147
1.05000 0.00846
1.05200 0.03996
1.05400 0.09198
1.05600 0.07812
1.05800 0.05338
1.06000 0.01221
1.06200 -0.07087
1.06400 -0.01875
1.06600 0.04223
1.06800 -0.01050
1.07000 -0.14234
1.07200 0.11906
1.07400 -0.02350
1.07600 -0.00665
1.07800 0.14540
1.08000 -0.04805
1.08200 -0.02752
1.08400 0.06907
1.08600 0.02099
1.08800 0.00921
1.09000 -0.06896
1.09200 -0.03527
1.09400 -0.02378
1.09600 0.11341
1.09800 0.05866
1.10000 -0.09914
1.10200 0.02215
1.10400 -0.00898
1.10600 0.00543
1.10800 -0.10807
1.11000 -0.02340
1.11200 -0.09913
1.11400 -0.01144
1.11600 -0.00413
1.11800 -0.04233
1.12000 -0.02630
1.12200 -0.06699
1.12400 -0.02511
1.12600 0.02342
1.12800 0.07540
1.13000 -0.05041
1.13200 -0.07691
1.13400 0.00412
1.13600 0.03666
1.13800 0.01512
1.14000 -0.07346
1.14200 -0.02141
1.14400 -0.01416
1.14600 0.02812
1.14800 -0.00291
1.15000 -0.04661
1.15200 -0.02133
1.15400 0.05237
1.15600 0.02654
1.15800 -0.06866
1.16000 0.08359
1.16200 0.03613
1.16400 0.05219
1.16600 0.04468
1.16800 0.00133
1.17000 0.02553
1.17200 -0.08091
1.17400 -0.00648
1.17600 0.00474
1.17800 -0.07505
1.18000 0.09687
1.18200 -0.08242
1.18400 -0.03825
1.18600 -0.02293
1.18800 0.03461
1.19000 -0.00164
1.19200 -0.01652
1.19400 -0.00414
1.19600 -0.03043
1.19800 -0.02363
1.20000 0.03642
1.20200 -0.05023
1.20400 -0.04864
1.20600 -0.00788
1.20800 0.03835
1.21000 -0.08909
1.21200 -0.01104
1.21400 -0.05987
1.21600 0.04145
1.21800 0.08514
1.22000 0.04013
1.22200 -0.01640
1.22400 -0.09208
1.22600 0.01428
1.22800 0.10263
1.23000 -0.00754
1.23200 -0.02450
1.23400 -0.01195
1.23600 -0.13498
1.23800 -0.02046
1.24000 0.02693
1.24200 0.02129
1.24400 -0.02914
1.24600 -0.06321
1.24800 0.08732
1.25000 0.02099
1.25200 0.00418
1.25400 -0.00153
1.25600 -0.04396
1.25800 -0.03573
1.26000 -0.07039
1.26200 -0.06984
1.26400 -0.11061
1.26600 -0.00948
1.26800 0.02191
1.27000 0.03041
1.27200 0.01176
1.27400 0.02625
1.27600 0.00985
1.27800 0.06362
1.28000 -0.00429
1.28200 -0.03057
1.28400 -0.00798
1.28600 -0.02488
1.28800 -0.03021
1.29000 -0.05554
1.29200 -0.02367
1.29400 0.00692
1.29600 0.10999
1.29800 -0.07241
1.30000 -0.03514
1.30200 0.05120
1.30400 0.04975
1.30600 0.04276
1.30800 0.10284
1.31000 -0.00108
1.31200 -0.02653
1.31400 -0.03971
1.31600 -0.00539
1.31800 0.01650
1.32000 -0.06031
1.32200 0.07917
1.32400 0.00435
1.32600 -0.05941
1.32800 0.04748
1.33000 0.00503
1.33200 0.13461
1.33400 -0.05244
1.33600 0.13772
1.33800 0.02026
1.34000 0.10124
1.34200 -0.09491
1.34400 0.09515
1.34600 0.03842
1.34800 0.08955
1.35000 -0.01189
1.35200 0.07103
1.35400 -0.04563
1.35600 0.02600
1.35800 0.02808
1.36000 0.08769
1.36200 0.08897
1.36400 -0.04224
1.36600 -0.03487
1.36800 -0.00126
1.37000 -0.05714
1.37200 -0.06150
1.37400 -0.02315
1.37600 -0.02099
1.37800 -0.04821
1.38000 -0.00030
1.38200 0.04815
1.38400 -0.02287
1.38600 0.01397
1.38800 0.01044
1.39000 -0.04336
1.39200 0.05955
1.39400 -0.06983
1.39600 -0.07973
1.39800 0.03266
1.40000 -0.03275
1.40200 0.07588
1.40400 0.01158
1.40600 0.02497
1.40800 0.05771
1.41000 -0.04551
1.41200 0.05697
1.41400 -0.02230
1.41600 -0.05101
1.41800 0.02748
1.42000 -0.03557
1.42200 -0.04419
1.42400 -0.02006
1.42600 -0.05951
1.42800 -0.01407
1.43000 -0.06039
1.43200 0.05754
1.43400 0.06132
1.43600 0.07332
1.43800 -0.02256
1.44000 0.02321
1.44200 0.01093
1.44400 0.03897
1.44600 -0.01710
1.44800 -0.04002
1.45000 0.10885
1.45200 0.06317
1.45400 -0.19296
1.45600 0.19826
1.45800 -0.02796
1.46000 0.07391
1.46200 -0.04986
1.46400 -0.00786
1.46600 0.01611
1.46800 0.07141
1.47000 0.07568
1.47200 0.03515
1.47400 0.01074
1.47600 0.07086
1.47800 -0.00720
1.48000 0.30630
1.48200 0.90183
1.48400 1.41403
1.48600 1.46006
1.48800 0.85229
1.49000 0.39920
1.49200 0.10714
1.49400 0.09392
1.49600 0.01839
1.49800 0.06261
1.50000 0.05402
1.50200 0.02974
1.50400 -0.02264
1.50600 0.05045
1.50800 -0.14753
1.51000 0.04090
1.51200 -0.00147
1.51400 -0.14287
1.51600 -0.07075
1.51800 0.00291
1.52000 0.00479
1.52200 -0.03373
1.52400 0.03880
1.52600 -0.04939
1.52800 -0.05387
1.53000 -0.00816
1.53200 0.13097
1.53400 -0.02639
1.53600 0.06963
1.53800 -0.16883
1.54000 0.00958
1.54200 -0.00569
1.54400 -0.00832
1.54600 0.05971
1.54800 -0.02861
1.55000 -0.03596
1.55200 0.03185
1.55400 0.16124
1.55600 0.01882
1.55800 0.01227
1.56000 -0.01529
1.56200 0.04388
1.56400 0.04603
1.56600 0.01883
1.56800 0.04018
1.57000 0.09193
1.57200 -0.04612
1.57400 -0.01770
1.57600 0.13063
1.57800 -0.02765
1.58000 0.09870
1.58200 -0.03068
1.58400 -0.03096
1.58600 0.01265
1.58800 -0.05535
1.59000 -0.01898
1.59200 -0.02678
1.59400 -0.02800
1.59600 0.04640
1.59800 -0.05156
1.60000 -0.06034
1.60200 0.03429
1.60400 -0.00174
1.60600 0.10832
1.60800 -0.04367
1.61000 0.00035
1.61200 0.05212
1.61400 -0.10737
1.61600 -0.07548
1.61800 0.00796
1.62000 0.05443
1.62200 -0.03724
1.62400 0.09615
1.62600 -0.11644
1.62800 0.05425
1.63000 -0.11866
1.63200 -0.01930
1.63400 -0.02892
1.63600 -0.00258
1.63800 -0.11561
1.64000 0.01371
1.64200 -0.04297
1.64400 -0.00853
1.64600 -0.03266
1.64800 -0.02961
1.65000 0.07476
1.65200 0.04721
1.65400 0.04062
1.65600 -0.05820
1.65800 0.00058
1.66000 0.08260
1.66200 -0.12875
1.66400 0.04405
1.66600 0.13969
1.66800 0.01337
1.67000 0.05178
1.67200 -0.10675
1.67400 -0.09983
1.67600 -0.01016
1.67800 0.00927
1.68000 0.03030
1.68200 -0.00010
1.68400 0.06703
1.68600 -0.03834
1.68800 -0.02473
1.69000 -0.00433
1.69200 0.00564
1.69400 0.04421
1.69600 0.11391
1.69800 -0.00610
1.70000 -0.11936
1.70200 -0.04049
1.70400 0.03618
1.70600 -0.08118
1.70800 0.05146
1.71000 -0.05609
1.71200 -0.06754
1.71400 -0.04966
1.71600 0.08072
1.71800 0.04119
1.72000 -0.01324
1.72200 0.02158
1.72400 0.08179
1.72600 -0.01961
1.72800 -0.02385
1.73000 -0.00427
1.73200 -0.00225
1.73400 0.06628
1.73600 0.00677
1.73800 0.01572
1.74000 -0.00729
1.74200 0.01101
1.74400 0.01511
1.74600 -0.00375
1.74800 0.09086
1.75000 0.09523
1.75200 0.03408
1.75400 0.00328
1.75600 -0.05915
1.75800 -0.01013
1.76000 0.06262
1.76200 -0.00176
1.76400 0.01843
1.76600 0.12293
1.76800 -0.04069
1.77000 0.09549
1.77200 -0.04626
1.77400 -0.05237
1.77600 -0.01179
1.77800 0.06353
1.78000 -0.04849
1.78200 -0.03533
1.78400 -0.02499
1.78600 -0.00140
1.78800 -0.03309
1.79000 0.07093
1.79200 0.00606
1.79400 -0.02323
1.79600 -0.04478
1.79800 -0.15438
1.80000 0.09618
1.80200 0.09190
1.80400 -0.00767
1.80600 0.11380
1.80800 0.03564
1.81000 0.02441
1.81200 0.03537
1.81400 -0.03680
1.81600 0.05699
1.81800 -0.10905
1.82000 0.02255
1.82200 -0.05408
1.82400 0.05533
1.82600 0.04262
1.82800 0.04701
1.83000 -0.09310
1.83200 0.00156
1.83400 0.00402
1.83600 -0.08114
1.83800 0.03545
1.84000 0.08369
1.84200 0.03131
1.84400 -0.00352
1.84600 0.03220
1.84800 -0.10112
1.85000 -0.06823
1.85200 -0.08947
1.85400 0.08972
1.85600 -0.00834
1.85800 0.00201
1.86000 0.05120
1.86200 0.02930
1.86400 0.10728
1.86600 0.02981
1.86800 0.02632
1.87000 0.08451
1.87200 -0.01995
1.87400 -0.00692
1.87600 -0.00300
1.87800 -0.08540
1.88000 0.01860
1.88200 0.02921
1.88400 0.01062
1.88600 0.03885
1.88800 0.06222
1.89000 -0.03923
1.89200 -0.04511
1.89400 -0.00912
1.89600 -0.04784
1.89800 -0.05847
1.90000 0.00439
1.90200 0.07246
1.90400 -0.06646
1.90600 0.06939
1.90800 -0.04695
1.91000 -0.10009
1.91200 -0.00180
1.91400 0.00555
1.91600 0.01714
1.91800 0.13625
1.92000 0.06149
1.92200 -0.00187
1.92400 0.19564
1.92600 -0.05715
1.92800 -0.02548
1.93000 0.01106
1.93200 -0.01296
1.93400 0.04869
1.93600 0.05286
1.93800 0.00520
1.94000 -0.08285
1.94200 -0.03654
1.94400 0.10619
1.94600 -0.01728
1.94800 0.07305
1.95000 -0.00195
1.95200 -0.13946
1.95400 -0.04408
1.95600 -0.03438
1.95800 -0.06981
1.96000 -0.05176
1.96200 0.17578
1.96400 -0.09244
1.96600 0.01576
1.96800 0.04654
1.97000 -0.05848
1.97200 -0.14769
1.97400 -0.04103
1.97600 0.01119
1.97800 0.00950
1.98000 -0.05494
1.98200 -0.03636
1.98400 -0.01279
1.98600 0.14204
1.98800 -0.06769
1.99000 -0.02964
1.99200 -0.08557
1.99400 -0.05728
1.99600 -0.02562
1.99800 -0.01739
2.00000 0.03081
2.00200 0.09489
2.00400 -0.01096
2.00600 0.01929
2.00800 -0.07972
2.01000 -0.02342
2.01200 -0.01411
2.01400 0.03953
2.01600 0.04032
2.01800 -0.02376
2.02000 0.08908
2.02200 -0.00108
2.02400 -0.08707
2.02600 0.03660
2.02800 0.00472
2.03000 -0.04338
2.03200 0.00194
2.03400 0.04172
2.03600 -0.00421
2.03800 -0.07289
2.04000 0.03016
2.04200 0.03064
2.04400 0.11006
2.04600 0.04224
2.04800 0.02174
2.05000 -0.04544
2.05200 -0.07041
2.05400 0.03035
2.05600 -0.01038
2.05800 0.01779
2.06000 -0.07936
2.06200 0.07622
2.06400 -0.04239
2.06600 0.04429
2.06800 0.05621
2.07000 0.03757
2.07200 0.03568
2.07400 0.21469
2.07600 0.77904
2.07800 1.37706
2.08000 1.39444
2.08200 0.95151
2.08400 0.47554
2.08600 0.11463
2.08800 0.01070
2.09000 0.04582
2.09200 -0.00799
2.09400 0.04167
2.09600 0.10232
2.09800 -0.00999
2.10000 -0.02707
2.10200 -0.02833
2.10400 -0.02019
2.10600 -0.02037
2.10800 -0.05854
2.11000 0.07886
2.11200 -0.06357
2.11400 -0.03423
2.11600 -0.05628
2.11800 -0.01062
2.12000 -0.07274
2.12200 0.15176
2.12400 0.00369
2.12600 -0.10591
2.12800 0.01485
2.13000 0.01067
2.13200 0.08466
2.13400 0.03886
2.13600 -0.09206
2.13800 0.04704
2.14000 0.02837
2.14200 -0.03479
2.14400 -0.01432
2.14600 0.00656
2.14800 0.01255
2.15000 0.08920
2.15200 -0.03955
2.15400 0.00924
2.15600 0.15475
2.15800 0.01215
2.16000 -0.03753
2.16200 -0.12251
2.16400 -0.10909
2.16600 0.01095
2.16800 0.02204
2.17000 -0.02258
2.17200 0.04735
2.17400 -0.06900
2.17600 -0.06624
2.17800 -0.09368
2.18000 -0.02879
2.18200 -0.01961
2.18400 0.02426
2.18600 -0.05855
2.18800 0.11186
2.19000 -0.00163
2.19200 -0.06143
2.19400 -0.02865
2.19600 -0.01219
2.19800 0.09435
2.20000 0.04077
2.20200 -0.04718
2.20400 -0.00013
2.20600 -0.04487
2.20800 -0.01084
2.21000 -0.05530
2.21200 -0.07838
2.21400 0.03966
2.21600 -0.04070
2.21800 0.03723
2.22000 0.04653
2.22200 0.03915
2.22400 0.11398
2.22600 -0.11442
2.22800 -0.09141
2.23000 -0.02325
2.23200 0.02635
2.23400 0.03931
2.23600 0.00586
2.23800 -0.04718
2.24000 -0.05722
2.24200 -0.01323
2.24400 -0.06885
2.24600 -0.02757
2.24800 0.06612
2.25000 -0.09232
2.25200 0.02349
2.25400 -0.00752
2.25600 0.06441
2.25800 -0.05787
2.26000 0.00042
2.26200 0.02136
2.26400 -0.06756
2.26600 -0.07592
2.26800 0.06174
2.27000 0.07569
2.27200 -0.03932
2.27400 -0.02415
2.27600 0.07433
2.27800 0.12608
2.28000 -0.02808
2.28200 -0.01123
2.28400 -0.02758
2.28600 -0.03113
2.28800 0.00752
2.29000 0.04692
2.29200 0.07330
2.29400 -0.09388
2.29600 0.09556
2.29800 0.01295
2.30000 -0.10401
2.30200 0.10595
2.30400 0.07497
2.30600 0.02610
2.30800 0.04219
2.31000 -0.02217
2.31200 0.02879
2.31400 0.00232
2.31600 -0.07943
2.31800 -0.09193
2.32000 0.07773
2.32200 0.04499
2.32400 0.04132
2.32600 -0.04225
2.32800 -0.08658
2.33000 -0.02305
2.33200 -0.04089
2.33400 0.14071
2.33600 0.10269
2.33800 0.02083
2.34000 -0.03919
2.34200 0.03131
2.34400 0.00107
2.34600 -0.14432
2.34800 0.02049
2.35000 -0.07405
2.35200 0.03480
2.35400 -0.05168
2.35600 0.00473
2.35800 0.03260
2.36000 0.02033
2.36200 -0.09961
2.36400 0.03959
2.36600 0.07487
2.36800 0.08961
2.37000 0.16454
2.37200 0.01373
2.37400 -0.10090
2.37600 -0.00126
2.37800 -0.00854
2.38000 -0.02907
2.38200 0.04571
2.38400 0.02177
2.38600 0.03101
2.38800 -0.00879
2.39000 0.09989
2.39200 -0.07078
2.39400 -0.10476
2.39600 0.06435
2.39800 0.05657
2.40000 -0.04850
2.40200 0.04104
2.40400 -0.05348
2.40600 -0.03494
2.40800 -0.00611
2.41000 -0.04351
2.41200 -0.00858
2.41400 -0.11287
2.41600 0.07338
2.41800 -0.03250
2.42000 0.01375
2.42200 0.03140
2.42400 0.07105
2.42600 0.02142
2.42800 -0.02427
2.43000 -0.01120
2.43200 -0.01763
2.43400 0.06796
2.43600 0.02273
2.43800 -0.01895
2.44000 -0.00374
2.44200 -0.06668
2.44400 -0.07297
2.44600 -0.00303
2.44800 -0.07962
2.45000 -0.10860
2.45200 0.08102
2.45400 0.01477
2.45600 -0.01579
2.45800 0.09458
2.46000 0.01971
2.46200 -0.02017
2.46400 -0.06638
2.46600 0.09607
2.46800 0.01318
2.47000 -0.05449
2.47200 -0.06740
2.47400 -0.13944
2.47600 0.06098
2.47800 -0.01171
2.48000 0.02598
2.48200 0.03234
2.48400 0.01368
2.48600 -0.09069
2.48800 0.00898
2.49000 -0.00141
2.49200 0.00055
2.49400 -0.03189
2.49600 0.00324
2.49800 -0.00336
2.50000 -0.05927
2.50200 -0.00447
2.50400 0.08066
2.50600 0.02214
2.50800 -0.06250
2.51000 0.05986
2.51200 -0.06759
2.51400 -0.00750
2.51600 -0.08372
2.51800 0.01207
2.52000 -0.01824
2.52200 0.09366
2.52400 0.01950
2.52600 -0.05421
2.52800 0.04024
2.53000 0.02492
2.53200 0.06944
2.53400 0.03734
2.53600 0.13309
2.53800 0.00073
2.54000 0.08346
2.54200 -0.08105
2.54400 0.05747
2.54600 -0.07486
2.54800 0.02690
2.55000 0.02491
2.55200 -0.03003
2.55400 0.00209
2.55600 -0.05685
2.55800 -0.04014
2.56000 -0.01183
2.56200 -0.03163
2.56400 0.02190
2.56600 -0.00794
2.56800 -0.06386
2.57000 -0.02085
2.57200 -0.01430
2.57400 -0.02584
2.57600 -0.01475
2.57800 0.15123
2.58000 -0.03731
2.58200 -0.04391
2.58400 0.04824
2.58600 0.04313
2.58800 -0.10867
2.59000 -0.09959
2.59200 0.07570
2.59400 0.03097
2.59600 -0.03396
2.59800 0.08796
2.60000 0.03645
2.60200 0.04810
2.60400 0.08754
2.60600 -0.00306
2.60800 0.04653
2.61000 -0.03227
2.61200 0.00658
2.61400 0.00139
2.61600 0.00913
2.61800 0.09041
2.62000 0.06165
2.62200 0.00128
2.62400 -0.05933
2.62600 0.02971
2.62800 -0.01264
2.63000 0.03759
2.63200 0.05376
2.63400 -0.02849
2.63600 0.03363
2.63800 -0.09575
2.64000 0.03406
2.64200 -0.08594
2.64400 0.00474
2.64600 0.00893
2.64800 0.01432
2.65000 -0.00354
2.65200 0.00621
2.65400 0.02823
2.65600 -0.05667
2.65800 -0.04809
2.66000 -0.10969
2.66200 -0.08620
2.66400 -0.02695
2.66600 0.14861
2.66800 0.23256
2.67000 0.91129
2.67200 1.44361
2.67400 1.36255
2.67600 0.90274
2.67800 0.35992
2.68000 0.14561
2.68200 -0.06751
2.68400 -0.13082
2.68600 -0.09897
2.68800 -0.09508
2.69000 -0.02344
2.69200 -0.06119
2.69400 0.03109
2.69600 -0.13535
2.69800 0.06701
2.70000 -0.10864
2.70200 -0.02906
2.70400 0.00903
2.70600 -0.03898
2.70800 0.00398
2.71000 0.04380
2.71200 -0.04304
2.71400 0.06602
2.71600 -0.00704
2.71800 -0.05100
2.72000 -0.05839
2.72200 -0.12882
2.72400 0.11879
2.72600 -0.03866
2.72800 -0.01043
2.73000 -0.02383
2.73200 0.08732
2.73400 0.06968
2.73600 -0.02607
2.73800 -0.00179
2.74000 0.09919
2.74200 0.05280
2.74400 0.05368
2.74600 0.10017
2.74800 0.04421
2.75000 0.05557
2.75200 -0.01312
2.75400 -0.14098
2.75600 0.10781
2.75800 -0.00941
2.76000 0.02639
2.76200 -0.07849
2.76400 -0.02742
2.76600 0.00362
2.76800 -0.06340
2.77000 0.01285
2.77200 -0.08255
2.77400 -0.03555
2.77600 0.05952
2.77800 0.02136
2.78000 -0.02696
2.78200 -0.05042
2.78400 -0.09686
2.78600 -0.11093
2.78800 -0.05024
2.79000 0.10213
2.79200 0.00681
2.79400 -0.06692
2.79600 -0.00529
2.79800 -0.04569
2.80000 -0.01027
2.80200 -0.06541
2.80400 0.01819
2.80600 0.04869
2.80800 0.06580
2.81000 -0.01780
2.81200 0.07909
2.81400 -0.04836
2.81600 -0.05128
2.81800 0.07697
2.82000 -0.07206
2.82200 -0.07959
2.82400 0.13203
2.82600 -0.01410
2.82800 -0.02420
2.83000 0.00628
2.83200 0.00670
2.83400 0.00362
2.83600 -0.00315
2.83800 -0.03991
2.84000 0.06716
2.84200 -0.02079
2.84400 0.06882
2.84600 -0.01471
2.84800 0.13668
2.85000 -0.05685
2.85200 0.07118
2.85400 0.16063
2.85600 0.05486
2.85800 0.03527
2.86000 0.04939
2.86200 0.01288
2.86400 -0.02999
2.86600 0.09123
2.86800 0.08020
2.87000 -0.05032
2.87200 -0.05144
2.87400 -0.01778
2.87600 0.04431
2.87800 0.02618
2.88000 0.17739
2.88200 0.05035
2.88400 -0.05201
2.88600 0.03511
2.88800 0.01716
2.89000 -0.10624
2.89200 0.01407
2.89400 0.07272
2.89600 -0.03917
2.89800 0.03033
2.90000 0.02770
2.90200 -0.01577
2.90400 0.07595
2.90600 0.03270
2.90800 0.04390
2.91000 0.02779
2.91200 -0.15529
2.91400 -0.14690
2.91600 0.00306
2.91800 -0.01322
2.92000 0.08591
2.92200 0.04840
2.92400 0.08058
2.92600 -0.05311
2.92800 0.02253
2.93000 -0.00402
2.93200 0.10251
2.93400 -0.07963
2.93600 0.01337
2.93800 -0.05979
2.94000 0.03254
2.94200 -0.01134
2.94400 0.02523
2.94600 0.00773
2.94800 0.01372
2.95000 -0.03984
2.95200 -0.14063
2.95400 0.09356
2.95600 -0.07484
2.95800 -0.03783
2.96000 0.13100
2.96200 -0.02213
2.96400 -0.02161
2.96600 -0.06967
2.96800 -0.06321
2.97000 -0.07092
2.97200 -0.07546
2.97400 0.02596
2.97600 0.03783
2.97800 0.02717
2.98000 -0.00700
2.98200 0.13256
2.98400 -0.03230
2.98600 -0.02971
2.98800 -0.04434
2.99000 -0.01161
2.99200 -0.01772
2.99400 0.00144
2.99600 -0.05632
2.99800 -0.04188
3.00000 0.00073
3.00200 0.07685
3.00400 -0.06901
3.00600 -0.02539
3.00800 -0.02670
3.01000 0.00118
3.01200 -0.08788
3.01400 -0.00515
3.01600 -0.01588
3.01800 0.08327
3.02000 0.01518
3.02200 0.14426
3.02400 0.03531
3.02600 -0.01013
3.02800 0.00528
3.03000 0.02483
3.03200 0.09777
3.03400 -0.07209
3.03600 -0.07233
3.03800 -0.09566
3.04000 -0.10083
3.04200 -0.06307
3.04400 -0.00426
3.04600 0.03569
3.04800 -0.05800
3.05000 -0.01184
3.05200 -0.07118
3.05400 -0.02717
3.05600 0.04137
3.05800 -0.18868
3.06000 -0.00164
3.06200 -0.02328
3.06400 -0.11342
3.06600 -0.11786
3.06800 0.06363
3.07000 -0.00228
3.07200 0.02169
3.07400 -0.04534
3.07600 0.02333
3.07800 -0.17231
3.08000 -0.12055
3.08200 0.03533
3.08400 0.03814
3.08600 0.07794
3.08800 -0.02953
3.09000 0.00510
3.09200 -0.11307
3.09400 -0.06598
3.09600 0.04241
3.09800 -0.06488
3.10000 0.00464
3.10200 -0.00040
3.10400 -0.02875
3.10600 -0.03756
3.10800 0.01329
3.11000 -0.07853
3.11200 -0.01144
3.11400 -0.05588
3.11600 -0.05905
3.11800 -0.01599
3.12000 -0.02661
3.12200 -0.00489
3.12400 -0.11340
3.12600 0.06518
3.12800 0.05825
3.13000 0.06064
3.13200 -0.05877
3.13400 -0.04389
3.13600 0.00731
3.13800 0.06263
3.14000 0.06968
3.14200 0.02011
3.14400 -0.08831
3.14600 0.06231
3.14800 -0.02783
3.15000 0.11558
3.15200 0.01726
3.15400 -0.09150
3.15600 -0.09749
3.15800 0.06451
3.16000 -0.00438
3.16200 0.00726
3.16400 0.02349
3.16600 0.09420
3.16800 -0.00812
3.17000 0.06570
3.17200 -0.02879
3.17400 0.01100
3.17600 -0.07984
3.17800 -0.07346
3.18000 -0.06576
3.18200 0.01138
3.18400 0.04750
3.18600 0.11508
3.18800 0.09730
3.19000 0.04030
3.19200 -0.03149
3.19400 -0.01425
3.19600 -0.01442
3.19800 0.02340
3.20000 -0.00781
3.20200 0.03620
3.20400 -0.04697
3.20600 -0.12390
3.20800 0.11982
3.21000 0.09717
3.21200 -0.00538
3.21400 -0.06519
3.21600 -0.02761
3.21800 0.06787
3.22000 0.02433
3.22200 -0.08496
3.22400 -0.05757
3.22600 -0.01957
3.22800 0.02532
3.23000 -0.07597
3.23200 0.02051
3.23400 0.13472
3.23600 0.02030
3.23800 0.06785
3.24000 -0.01832
3.24200 -0.07975
3.24400 0.03481
3.24600 0.10521
3.24800 0.03322
3.25000 0.03787
3.25200 0.00116
3.25400 -0.01799
3.25600 0.08248
3.25800 0.08292
3.26000 0.11655
3.26200 0.31064
3.26400 0.74639
3.26600 1.24338
3.26800 1.53386
3.27000 1.08807
3.27200 0.53940
3.27400 0.11482
3.27600 0.12418
3.27800 -0.05408
3.28000 0.01293
3.28200 -0.09189
3.28400 -0.12405
3.28600 0.02908
3.28800 -0.03167
3.29000 -0.02917
3.29200 -0.03355
3.29400 0.06000
3.29600 -0.01842
3.29800 -0.01876
3.30000 0.07360
3.30200 -0.00242
3.30400 -0.07737
3.30600 -0.08310
3.30800 0.05035
3.31000 0.04136
3.31200 0.05491
3.31400 0.01602
3.31600 0.10156
3.31800 -0.00971
3.32000 0.00288
3.32200 0.07531
3.32400 -0.03720
3.32600 0.00999
3.32800 0.06649
3.33000 -0.05283
3.33200 -0.00012
3.33400 -0.00300
3.33600 -0.10166
3.33800 0.01882
3.34000 -0.05511
3.34200 0.00698
3.34400 -0.03035
3.34600 -0.05594
3.34800 -0.04096
3.35000 -0.00282
3.35200 -0.01550
3.35400 -0.03910
3.35600 0.06017
3.35800 0.02149
3.36000 -0.02202
3.36200 0.00535
3.36400 0.02610
3.36600 -0.02570
3.36800 -0.10130
3.37000 -0.08805
3.37200 -0.04573
3.37400 0.05085
3.37600 0.13557
3.37800 0.00154
3.38000 0.10563
3.38200 0.01187
3.38400 0.01362
3.38600 -0.07968
3.38800 0.05858
3.39000 -0.03142
3.39200 -0.02080
3.39400 0.00511
3.39600 0.07979
3.39800 0.07764
3.40000 -0.04631
3.40200 0.08838
3.40400 0.05088
3.40600 -0.00200
3.40800 -0.02360
3.41000 -0.10106
3.41200 -0.04670
3.41400 0.01776
3.41600 -0.01233
3.41800 -0.01130
3.42000 -0.04807
3.42200 0.07108
3.42400 -0.01675
3.42600 0.00213
3.42800 -0.11176
3.43000 -0.05414
3.43200 0.11318
3.43400 -0.00839
3.43600 0.04601
3.43800 0.11311
3.44000 -0.03916
3.44200 0.05862
3.44400 -0.02720
3.44600 -0.06839
3.44800 0.10167
3.45000 0.05514
3.45200 -0.01057
3.45400 0.11122
3.45600 0.12893
3.45800 0.00848
3.46000 -0.03615
3.46200 -0.03699
3.46400 -0.01385
3.46600 -0.00467
3.46800 -0.07032
3.47000 -0.04047
3.47200 -0.02235
3.47400 -0.07453
3.47600 -0.03811
3.47800 0.06675
3.48000 0.14003
3.48200 -0.06135
3.48400 -0.02110
3.48600 -0.00724
3.48800 0.00426
3.49000 0.05381
3.49200 -0.04782
3.49400 -0.06744
3.49600 -0.02577
3.49800 0.02030
3.50000 0.05298
3.50200 -0.07903
3.50400 0.05842
3.50600 -0.10609
3.50800 -0.08257
3.51000 0.01372
3.51200 -0.01059
3.51400 -0.00051
3.51600 -0.05212
3.51800 -0.01907
3.52000 -0.04072
3.52200 -0.00207
3.52400 -0.03899
3.52600 -0.05312
3.52800 0.08783
3.53000 0.00495
3.53200 0.04270
3.53400 0.03315
3.53600 -0.01891
3.53800 -0.03081
3.54000 0.04047
3.54200 0.04418
3.54400 0.05227
3.54600 -0.05464
3.54800 0.02526
3.55000 -0.06121
3.55200 -0.07276
3.55400 -0.01828
3.55600 -0.00042
3.55800 -0.05512
3.56000 -0.04241
3.56200 -0.07756
3.56400 0.11114
3.56600 0.03660
3.56800 -0.06481
3.57000 -0.02780
3.57200 -0.01838
3.57400 -0.12304
3.57600 0.09239
3.57800 0.01418
3.58000 -0.13024
3.58200 0.03296
3.58400 -0.04467
3.58600 0.06581
3.58800 0.05450
3.59000 0.01983
3.59200 -0.01241
3.59400 -0.08524
3.59600 -0.03564
3.59800 -0.00259
3.60000 0.00636
3.60200 0.00868
3.60400 0.04134
3.60600 -0.01991
3.60800 -0.01996
3.61000 -0.06968
3.61200 -0.04633
3.61400 -0.01931
3.61600 0.14492
3.61800 0.09504
3.62000 -0.08500
3.62200 0.01478
3.62400 0.08776
3.62600 0.07615
3.62800 -0.08328
3.63000 0.02974
3.63200 -0.03244
3.63400 0.07619
3.63600 0.10279
3.63800 -0.04268
3.64000 0.03085
3.64200 0.10113
3.64400 -0.02389
3.64600 0.08275
3.64800 -0.09668
3.65000 0.04019
3.65200 -0.01860
3.65400 0.07216
3.65600 -0.13120
3.65800 0.00778
3.66000 -0.01469
3.66200 0.01278
3.66400 0.04820
3.66600 0.12705
3.66800 0.01028
3.67000 0.01840
3.67200 0.01773
3.67400 0.00550
3.67600 -0.04381
3.67800 0.02071
3.68000 -0.01236
3.68200 0.04497
3.68400 -0.01863
3.68600 -0.07508
3.68800 -0.03996
3.69000 -0.00113
3.69200 -0.03358
3.69400 -0.02836
3.69600 0.00031
3.69800 -0.02275
3.70000 -0.02235
3.70200 0.02410
3.70400 0.02353
3.70600 0.03187
3.70800 -0.02784
3.71000 0.07732
3.71200 0.04282
3.71400 -0.04727
3.71600 0.00197
3.71800 -0.03531
3.72000 0.03696
3.72200 0.06919
3.72400 -0.01675
3.72600 0.02393
3.72800 0.02067
3.73000 -0.06023
3.73200 -0.09958
3.73400 -0.08571
3.73600 0.02638
3.73800 0.12892
3.74000 -0.00184
3.74200 0.02437
3.74400 0.04610
3.74600 -0.08238
3.74800 -0.05139
3.75000 -0.00094
3.75200 -0.02176
3.75400 0.09201
3.75600 0.03373
3.75800 0.01814
3.76000 0.04359
3.76200 0.06381
3.76400 -0.05369
3.76600 0.13041
3.76800 -0.02440
3.77000 0.06764
3.77200 0.05312
3.77400 0.04312
3.77600 -0.01848
3.77800 -0.02666
3.78000 -0.00047
3.78200 -0.02847
3.78400 0.05397
3.78600 0.01884
3.78800 -0.06561
3.79000 -0.10383
3.79200 -0.01462
3.79400 -0.01181
3.79600 0.09077
3.79800 -0.01389
3.80000 0.10497
3.80200 0.00773
3.80400 0.07698
3.80600 -0.06058
3.80800 -0.16493
3.81000 0.02822
3.81200 0.08210
3.81400 -0.13593
3.81600 -0.05739
3.81800 -0.01047
3.82000 0.03127
3.82200 0.03663
3.82400 -0.02331
3.82600 0.04636
3.82800 0.08469
3.83000 0.03398
3.83200 0.02259
3.83400 -0.07775
3.83600 -0.00535
3.83800 0.08070
3.84000 -0.00666
3.84200 -0.06362
3.84400 0.01980
3.84600 0.06718
3.84800 0.12608
3.85000 0.03946
3.85200 0.10871
3.85400 0.11458
3.85600 0.35733
3.85800 0.78090
3.86000 1.24779
3.86200 1.42629
3.86400 0.95467
3.86600 0.39817
3.86800 0.00293
3.87000 0.01549
3.87200 0.02310
3.87400 -0.08561
3.87600 0.07094
3.87800 0.01341
3.88000 -0.03421
3.88200 -0.01601
3.88400 0.04639
3.88600 -0.01991
3.88800 -0.04990
3.89000 0.01601
3.89200 -0.08392
3.89400 0.00940
3.89600 -0.00602
3.89800 0.00176
3.90000 0.06415
3.90200 -0.02709
3.90400 0.03954
3.90600 -0.03426
3.90800 0.01710
3.91000 0.05447
3.91200 0.01520
3.91400 0.03442
3.91600 -0.00850
3.91800 0.06126
3.92000 -0.06845
3.92200 0.06457
3.92400 -0.06010
3.92600 -0.10917
3.92800 0.04566
3.93000 -0.06759
3.93200 0.02581
3.93400 -0.00144
3.93600 -0.11830
3.93800 -0.03158
3.94000 0.02382
3.94200 -0.11068
3.94400 -0.04053
3.94600 -0.03499
3.94800 0.07583
3.95000 -0.02209
3.95200 0.08727
3.95400 0.07432
3.95600 0.04945
3.95800 -0.04436
3.96000 -0.02538
3.96200 -0.08873
3.96400 -0.11221
3.96600 -0.00756
3.96800 0.12809
3.97000 -0.02479
3.97200 0.07951
3.97400 0.10295
3.97600 -0.07100
3.97800 0.01059
3.98000 -0.05394
3.98200 -0.06625
3.98400 -0.03883
3.98600 0.02577
3.98800 0.03694
3.99000 0.06576
3.99200 -0.05216
3.99400 0.00768
3.99600 0.11245
3.99800 0.06429
4.00000 0.06597
4.00200 -0.01397
4.00400 0.06182
4.00600 0.01623
4.00800 -0.07283
4.01000 -0.05147
4.01200 -0.08302
4.01400 -0.05186
4.01600 0.05921
4.01800 0.07633
4.02000 0.06371
4.02200 -0.10679
4.02400 -0.11169
4.02600 -0.03024
4.02800 -0.00173
4.03000 0.00232
4.03200 -0.04238
4.03400 0.07470
4.03600 -0.07382
4.03800 -0.08045
4.04000 0.00103
4.04200 -0.06651
4.04400 -0.04296
4.04600 -0.00021
4.04800 0.05450
4.05000 -0.05933
4.05200 -0.11518
4.05400 -0.01168
4.05600 -0.14362
4.05800 -0.03419
4.06000 0.07174
4.06200 -0.01582
4.06400 0.09946
4.06600 -0.01331
4.06800 0.05283
4.07000 -0.04721
4.07200 0.07114
4.07400 -0.02486
4.07600 -0.03879
4.07800 -0.12291
4.08000 0.00074
4.08200 -0.07334
4.08400 -0.03975
4.08600 -0.06953
4.08800 0.08944
4.09000 0.04286
4.09200 -0.02653
4.09400 0.08693
4.09600 -0.03250
4.09800 -0.00603
4.10000 0.00442
4.10200 -0.03467
4.10400 -0.01892
4.10600 0.14779
4.10800 0.01146
4.11000 0.04096
4.11200 -0.11678
4.11400 0.08899
4.11600 -0.01971
4.11800 -0.12062
4.12000 0.00023
4.12200 -0.13260
4.12400 -0.09277
4.12600 0.00430
4.12800 -0.00310
4.13000 0.00244
4.13200 -0.14051
4.13400 -0.03180
4.13600 0.03750
4.13800 0.07683
4.14000 0.08072
4.14200 -0.01302
4.14400 -0.02034
4.14600 0.00743
4.14800 -0.11545
4.15000 -0.06897
4.15200 -0.11083
4.15400 0.05420
4.15600 -0.03239
4.15800 -0.03184
4.16000 -0.03279
4.16200 0.09267
4.16400 0.08054
4.16600 0.15769
4.16800 0.05439
4.17000 -0.00678
4.17200 -0.00013
4.17400 -0.09553
4.17600 0.03395
4.17800 0.07656
4.18000 0.00328
4.18200 -0.04747
4.18400 -0.06433
4.18600 -0.02163
4.18800 0.08032
4.19000 0.01274
4.19200 0.06892
4.19400 -0.02222
4.19600 -0.06542
4.19800 0.07524
4.20000 -0.02995
4.20200 -0.05003
4.20400 -0.01493
4.20600 0.04015
4.20800 0.06014
4.21000 0.13318
4.21200 -0.07308
4.21400 -0.07474
4.21600 -0.04690
4.21800 -0.05656
4.22000 0.00607
4.22200 -0.03496
4.22400 -0.01156
4.22600 -0.00677
4.22800 0.03608
4.23000 0.04887
4.23200 0.05881
4.23400 0.12563
4.23600 -0.00498
4.23800 -0.11889
4.24000 -0.05425
4.24200 0.02032
4.24400 -0.09275
4.24600 -0.12645
4.24800 -0.06240
4.25000 0.01106
4.25200 -0.06009
4.25400 -0.03929
4.25600 -0.04844
4.25800 0.00255
4.26000 -0.05678
4.26200 -0.01063
4.26400 -0.04523
4.26600 0.03934
4.26800 -0.06201
4.27000 -0.06523
4.27200 -0.02818
4.27400 0.04612
4.27600 0.04917
4.27800 0.03160
4.28000 0.04608
4.28200 -0.02984
4.28400 0.03136
4.28600 -0.02762
4.28800 0.01565
4.29000 -0.04594
4.29200 -0.02934
4.29400 -0.02950
4.29600 0.04328
4.29800 -0.05928
4.30000 -0.02064
4.30200 -0.07950
4.30400 -0.04719
4.30600 -0.03634
4.30800 -0.05748
4.31000 0.01266
4.31200 -0.02599
4.31400 0.07810
4.31600 -0.02650
4.31800 0.03641
4.32000 -0.00216
4.32200 -0.04024
4.32400 0.01277
4.32600 0.03428
4.32800 0.15460
4.33000 -0.08046
4.33200 -0.01166
4.33400 -0.06554
4.33600 -0.02054
4.33800 -0.05032
4.34000 0.06143
4.34200 0.05821
4.34400 -0.08286
4.34600 0.04667
4.34800 -0.04615
4.35000 -0.05098
4.35200 -0.07687
4.35400 0.07294
4.35600 0.06736
4.35800 -0.02773
4.36000 -0.03686
4.36200 -0.09764
4.36400 -0.01198
4.36600 -0.15458
4.36800 0.08569
4.37000 -0.08510
4.37200 0.02714
4.37400 0.01827
4.37600 -0.02433
4.37800 0.09475
4.38000 0.04680
4.38200 -0.03557
4.38400 -0.02211
4.38600 -0.07020
4.38800 -0.05240
4.39000 0.03172
4.39200 0.08988
4.39400 0.03826
4.39600 0.00019
4.39800 -0.00773
4.40000 0.12459
4.40200 0.01608
4.40400 -0.04879
4.40600 0.07480
4.40800 -0.10471
4.41000 0.07738
4.41200 0.02239
4.41400 0.01382
4.41600 -0.04334
4.41800 0.14444
4.42000 0.08437
4.42200 -0.02057
4.42400 0.05504
4.42600 -0.01536
4.42800 -0.05336
4.43000 0.02718
4.43200 0.00759
4.43400 -0.03517
4.43600 0.08993
4.43800 -0.01094
4.44000 0.09160
4.44200 0.01105
4.44400 -0.00349
4.44600 -0.00816
4.44800 0.09884
4.45000 0.24960
4.45200 0.80843
4.45400 1.46628
4.45600 1.49112
4.45800 1.08456
4.46000 0.41337
4.46200 0.19024
4.46400 0.08426
4.46600 -0.02637
4.46800 0.07643
4.47000 -0.00498
4.47200 -0.03959
4.47400 -0.02191
4.47600 0.02983
4.47800 -0.02492
4.48000 -0.04915
4.48200 0.05107
4.48400 -0.08244
4.48600 -0.00637
4.48800 -0.00395
4.49000 -0.03018
4.49200 -0.00228
4.49400 -0.09556
4.49600 0.04583
4.49800 -0.00534
4.50000 -0.00780
4.50200 -0.04180
4.50400 0.08252
4.50600 0.03025
4.50800 -0.05039
4.51000 0.05549
4.51200 -0.01156
4.51400 0.00247
4.51600 -0.06638
4.51800 0.02426
4.52000 -0.02003
4.52200 -0.04475
4.52400 -0.05539
4.52600 0.07449
4.52800 0.04041
4.53000 -0.17540
4.53200 0.04590
4.53400 0.02663
4.53600 0.03042
4.53800 0.06359
4.54000 -0.02941
4.54200 -0.05544
4.54400 -0.02074
4.54600 -0.01123
4.54800 -0.03123
4.55000 -0.05561
4.55200 -0.07713
4.55400 -0.05949
4.55600 -0.00599
4.55800 -0.01577
4.56000 0.03375
4.56200 0.06123
4.56400 0.01147
4.56600 -0.00501
4.56800 0.03920
4.57000 0.10889
4.57200 0.14183
4.57400 0.01647
4.57600 -0.05901
4.57800 -0.00815
4.58000 -0.00342
4.58200 0.05039
4.58400 -0.03060
4.58600 0.00898
4.58800 -0.04479
4.59000 -0.12945
4.59200 0.01286
4.59400 -0.12025
4.59600 -0.01715
4.59800 -0.10267
4.60000 -0.06406
4.60200 0.08604
4.60400 -0.03033
4.60600 -0.11895
4.60800 0.04099
4.61000 -0.01928
4.61200 -0.08801
4.61400 0.03561
4.61600 0.02875
4.61800 0.00117
4.62000 -0.00081
4.62200 -0.05347
4.62400 0.03672
4.62600 0.03490
4.62800 -0.06906
4.63000 -0.08430
4.63200 0.01313
4.63400 0.08359
4.63600 -0.07267
4.63800 -0.09962
4.64000 0.01182
4.64200 0.00039
4.64400 -0.07458
4.64600 0.00644
4.64800 0.05252
4.65000 0.04891
4.65200 -0.02935
4.65400 -0.07590
4.65600 -0.06580
4.65800 0.00230
4.66000 0.02363
4.66200 0.09985
4.66400 0.00921
4.66600 -0.04779
4.66800 -0.04338
4.67000 0.00311
4.67200 0.13524
4.67400 -0.00280
4.67600 0.01174
4.67800 0.06128
4.68000 -0.01181
4.68200 0.03261
4.68400 -0.00978
4.68600 -0.00271
4.68800 -0.01514
4.69000 0.00923
4.69200 -0.06302
4.69400 -0.06497
4.69600 -0.11060
4.69800 0.04954
4.70000 -0.03645
4.70200 -0.06710
4.70400 -0.00977
4.70600 -0.03391
4.70800 0.02107
4.71000 -0.12536
4.71200 -0.03578
4.71400 -0.03504
4.71600 0.02953
4.71800 -0.03716
4.72000 -0.08930
4.72200 0.01362
4.72400 0.02787
4.72600 0.02731
4.72800 -0.03441
4.73000 -0.00907
4.73200 0.00543
4.73400 -0.09165
4.73600 -0.13610
4.73800 0.02646
4.74000 0.01922
4.74200 -0.08383
4.74400 -0.06983
4.74600 -0.04340
4.74800 -0.01914
4.75000 0.09397
4.75200 0.02624
4.75400 0.02884
4.75600 -0.05139
4.75800 0.07385
4.76000 0.01453
4.76200 0.03376
4.76400 -0.04744
4.76600 0.04050
4.76800 0.10315
4.77000 -0.02765
4.77200 0.01192
4.77400 0.07561
4.77600 -0.00841
4.77800 -0.00455
4.78000 0.00790
4.78200 -0.04746
4.78400 -0.04684
4.78600 0.04479
4.78800 0.07924
4.79000 0.00517
4.79200 0.05100
4.79400 -0.02792
4.79600 -0.07026
4.79800 0.11352
4.80000 0.02305
4.80200 0.00596
4.80400 -0.08939
4.80600 0.00853
4.80800 0.06395
4.81000 -0.04181
4.81200 0.01402
4.81400 0.03489
4.81600 0.12412
4.81800 0.00749
4.82000 -0.05487
4.82200 0.05593
4.82400 0.01926
4.82600 0.01538
4.82800 0.04276
4.83000 -0.08240
4.83200 0.02711
4.83400 -0.01302
4.83600 -0.07103
4.83800 0.07261
4.84000 0.01486
4.84200 0.01057
4.84400 -0.02867
4.84600 -0.03274
4.84800 0.02904
4.85000 0.05395
4.85200 -0.03529
4.85400 -0.07055
4.85600 0.09091
4.85800 0.02955
4.86000 0.00410
4.86200 -0.03378
4.86400 0.03719
4.86600 -0.13893
4.86800 0.04650
4.87000 -0.04286
4.87200 0.04719
4.87400 -0.00833
4.87600 -0.07177
4.87800 -0.01986
4.88000 0.01649
4.88200 0.07068
4.88400 0.06707
4.88600 -0.00934
4.88800 0.09829
4.89000 0.11477
4.89200 0.04033
4.89400 -0.00722
4.89600 0.02088
4.89800 -0.02123
4.90000 -0.08696
4.90200 0.05474
4.90400 0.05461
4.90600 -0.00665
4.90800 -0.06140
4.91000 -0.04311
4.91200 -0.10150
4.91400 -0.12928
4.91600 -0.00167
4.91800 0.08363
4.92000 -0.08225
4.92200 -0.03207
4.92400 0.01175
4.92600 0.05813
4.92800 -0.09122
4.93000 0.03034
4.93200 -0.07190
4.93400 0.02055
4.93600 0.00445
4.93800 -0.03859
4.94000 -0.02629
4.94200 -0.03651
4.94400 -0.05430
4.94600 0.00436
4.94800 -0.05090
4.95000 -0.05242
4.95200 -0.02399
4.95400 -0.01033
4.95600 -0.07803
4.95800 -0.03210
4.96000 0.11795
4.96200 0.01297
4.96400 0.04747
4.96600 0.08187
4.96800 0.07422
4.97000 -0.01121
4.97200 -0.02001
4.97400 0.01664
4.97600 -0.00986
4.97800 0.03655
4.98000 0.02348
4.98200 -0.09289
4.98400 -0.05923
4.98600 -0.02728
4.98800 0.07228
4.99000 0.06368
4.99200 -0.08593
4.99400 -0.02090
4.99600 -0.13746
4.99800 -0.03583
5.00000 0.06522
5.00200 0.04478
5.00400 0.04210
5.00600 -0.09821
5.00800 -0.05375
5.01000 -0.02062
5.01200 0.13373
5.01400 -0.00039
5.01600 -0.11542
5.01800 -0.06766
5.02000 0.02434
5.02200 0.07524
5.02400 -0.01736
5.02600 0.02092
5.02800 0.00432
5.03000 -0.08985
5.03200 0.03414
5.03400 0.03423
5.03600 -0.05220
5.03800 0.06034
5.04000 0.01824
5.04200 0.05477
5.04400 0.29256
5.04600 0.78404
5.04800 1.17413
5.05000 1.43385
5.05200 1.03326
5.05400 0.56997
5.05600 0.08019
5.05800 0.05253
5.06000 -0.08146
5.06200 0.04142
5.06400 -0.09473
5.06600 -0.08188
5.06800 -0.06474
5.07000 0.06434
5.07200 -0.02706
5.07400 0.00720
5.07600 -0.00986
5.07800 0.07170
5.08000 -0.04014
5.08200 -0.09278
5.08400 0.02965
5.08600 -0.05543
5.08800 -0.04553
5.09000 -0.02996
5.09200 0.08042
5.09400 -0.03269
5.09600 -0.05705
5.09800 -0.09183
5.10000 -0.12076
5.10200 0.00000
5.10400 0.05825
5.10600 -0.06101
5.10800 -0.00556
5.11000 -0.04625
5.11200 0.00096
5.11400 -0.00485
5.11600 0.01765
5.11800 0.05548
5.12000 -0.06863
5.12200 0.03930
5.12400 0.08206
5.12600 -0.14765
5.12800 0.06394
5.13000 0.05840
5.13200 0.03368
5.13400 -0.01764
5.13600 0.00924
5.13800 -0.06494
5.14000 -0.02925
5.14200 -0.02764
5.14400 -0.01056
5.14600 0.09908
5.14800 0.03524
5.15000 0.01925
5.15200 -0.00520
5.15400 -0.03020
5.15600 -0.07101
5.15800 0.04944
5.16000 -0.03492
5.16200 -0.03859
5.16400 0.01552
5.16600 0.02392
5.16800 0.03494
5.17000 0.04424
5.17200 -0.10904
5.17400 0.01550
5.17600 0.02347
5.17800 -0.02901
5.18000 -0.06332
5.18200 -0.09076
5.18400 -0.05485
5.18600 -0.08707
5.18800 -0.07061
5.19000 0.00355
5.19200 -0.02458
5.19400 -0.03096
5.19600 0.05307
5.19800 0.03526
5.20000 0.00704
5.20200 -0.06797
5.20400 -0.00403
5.20600 -0.05850
5.20800 0.08925
5.21000 0.04800
5.21200 0.06057
5.21400 0.08759
5.21600 -0.00233
5.21800 -0.04346
5.22000 0.01578
5.22200 0.03542
5.22400 -0.08601
5.22600 0.01282
5.22800 -0.01206
5.23000 0.06523
5.23200 0.01535
5.23400 0.00732
5.23600 -0.05739
5.23800 0.01191
5.24000 -0.04874
5.24200 0.00652
5.24400 0.05069
5.24600 0.04667
5.24800 0.08776
5.25000 -0.08665
5.25200 0.03694
5.25400 0.03941
5.25600 0.02042
5.25800 -0.05627
5.26000 0.06022
5.26200 -0.04602
5.26400 -0.06797
5.26600 -0.02857
5.26800 -0.04877
5.27000 0.10069
5.27200 -0.03564
5.27400 -0.06714
5.27600 0.04492
5.27800 -0.02129
5.28000 0.07226
5.28200 -0.10167
5.28400 0.00832
5.28600 0.03881
5.28800 0.08584
5.29000 -0.01873
5.29200 -0.13110
5.29400 -0.10845
5.29600 0.07043
5.29800 0.05706
5.30000 0.08060
5.30200 -0.00401
5.30400 0.05330
5.30600 0.06979
5.30800 0.11414
5.31000 0.05216
5.31200 0.07332
5.31400 -0.03097
5.31600 0.02484
5.31800 -0.17215
5.32000 -0.01056
5.32200 -0.14175
5.32400 0.02868
5.32600 0.01742
5.32800 0.10593
5.33000 0.02629
5.33200 0.04601
5.33400 -0.01945
5.33600 -0.00340
5.33800 0.05987
5.34000 0.04936
5.34200 -0.06752
5.34400 -0.04654
5.34600 0.00060
5.34800 -0.05589
5.35000 -0.00154
5.35200 -0.07032
5.35400 -0.07813
5.35600 -0.04328
5.35800 0.06501
5.36000 -0.06011
5.36200 0.07753
5.36400 0.11748
5.36600 -0.02026
5.36800 -0.00441
5.37000 -0.00143
5.37200 -0.13939
5.37400 0.03634
5.37600 -0.05912
5.37800 0.10643
5.38000 0.06396
5.38200 0.02622
5.38400 0.04995
5.38600 -0.01958
5.38800 0.11027
5.39000 -0.04368
5.39200 -0.09082
5.39400 -0.05127
5.39600 0.07100
5.39800 0.03918
5.40000 0.04956
5.40200 0.03980
5.40400 0.05363
5.40600 -0.06512
5.40800 -0.01780
5.41000 0.07349
5.41200 -0.02950
5.41400 -0.12638
5.41600 0.13077
5.41800 -0.01386
5.42000 -0.11765
5.42200 0.01284
5.42400 -0.01438
5.42600 0.07435
5.42800 0.01783
5.43000 -0.03449
5.43200 0.05798
5.43400 -0.04473
5.43600 -0.10595
5.43800 0.03038
5.44000 -0.03219
5.44200 0.02284
5.44400 0.00766
5.44600 -0.11333
5.44800 -0.06392
5.45000 0.07193
5.45200 -0.02488
5.45400 0.10813
5.45600 0.02712
5.45800 0.02889
5.46000 0.00176
5.46200 0.12407
5.46400 -0.03646
5.46600 -0.13267
5.46800 -0.11993
5.47000 -0.01087
5.47200 0.05821
5.47400 0.03650
5.47600 -0.05164
5.47800 0.00878
5.48000 0.03923
5.48200 -0.08162
5.48400 0.04211
5.48600 -0.02098
5.48800 -0.04712
5.49000 -0.04553
5.49200 -0.09922
5.49400 0.04576
5.49600 -0.02261
5.49800 0.04946
5.50000 0.05953
5.50200 0.08623
5.50400 0.01007
5.50600 -0.04790
5.50800 0.07011
5.51000 -0.00584
5.51200 0.07217
5.51400 -0.12477
5.51600 0.11000
5.51800 0.00467
5.52000 0.03953
5.52200 0.00025
5.52400 -0.05422
5.52600 -0.01570
5.52800 0.03020
5.53000 0.01962
5.53200 -0.06608
5.53400 0.01577
5.53600 -0.06084
5.53800 -0.14667
5.54000 0.00810
5.54200 -0.02011
5.54400 -0.14196
5.54600 0.04566
5.54800 -0.15314
5.55000 0.01986
5.55200 0.03648
5.55400 -0.07402
5.55600 -0.11609
5.55800 -0.03340
5.56000 0.01515
5.56200 -0.01637
5.56400 -0.00474
5.56600 0.01353
5.56800 -0.07358
5.57000 0.02091
5.57200 0.05892
5.57400 -0.07289
5.57600 -0.04942
5.57800 -0.03172
5.58000 0.05707
5.58200 0.07445
5.58400 -0.06681
5.58600 0.02847
5.58800 -0.02967
5.59000 0.02110
5.59200 0.01863
5.59400 -0.00622
5.59600 -0.01264
5.59800 0.00042
5.60000 0.02581
5.60200 0.03014
5.60400 -0.08805
5.60600 0.00653
5.60800 0.04826
5.61000 -0.04661
5.61200 0.07343
5.61400 0.04123
5.61600 0.02917
5.61800 0.10314
5.62000 -0.02798
5.62200 -0.05450
5.62400 -0.04297
5.62600 -0.05980
5.62800 0.03336
5.63000 -0.04055
5.63200 -0.00656
5.63400 -0.01505
5.63600 0.00556
5.63800 0.20527
5.64000 0.71889
5.64200 1.24584
5.64400 1.47680
5.64600 1.16579
5.64800 0.41565
5.65000 0.13980
5.65200 -0.02261
5.65400 0.00042
5.65600 -0.08912
5.65800 -0.05071
5.66000 -0.02255
5.66200 -0.10402
5.66400 0.04570
5.66600 0.00330
5.66800 0.03211
5.67000 -0.07260
5.67200 -0.02900
5.67400 0.00607
5.67600 -0.00762
5.67800 0.17750
5.68000 -0.09341
5.68200 -0.05334
5.68400 0.07383
5.68600 -0.07324
5.68800 -0.05553
5.69000 0.02691
5.69200 0.01909
5.69400 0.03973
5.69600 0.00583
5.69800 0.00579
5.70000 -0.02363
5.70200 0.05239
5.70400 0.04659
5.70600 0.00205
5.70800 0.01574
5.71000 0.08587
5.71200 -0.04466
5.71400 -0.03146
5.71600 0.00119
5.71800 -0.01527
5.72000 0.02108
5.72200 -0.02510
5.72400 -0.02842
5.72600 0.14525
5.72800 0.07216
5.73000 -0.06642
5.73200 -0.05771
5.73400 -0.08763
5.73600 0.03180
5.73800 -0.06123
5.74000 -0.03591
5.74200 0.01341
5.74400 -0.02877
5.74600 -0.01997
5.74800 0.03458
5.75000 0.01736
5.75200 -0.03488
5.75400 -0.02585
5.75600 -0.05948
5.75800 -0.00848
5.76000 0.04238
5.76200 -0.08923
5.76400 -0.04802
5.76600 -0.01480
5.76800 0.07704
5.77000 -0.00910
5.77200 -0.00543
5.77400 -0.05017
5.77600 0.07846
5.77800 0.02049
5.78000 -0.00746
5.78200 0.02256
5.78400 -0.05435
5.78600 0.07762
5.78800 0.08027
5.79000 0.00080
5.79200 0.02436
5.79400 0.01743
5.79600 -0.05617
5.79800 -0.02778
5.80000 -0.00022
5.80200 -0.08169
5.80400 -0.01334
5.80600 -0.03024
5.80800 0.06762
5.81000 0.04603
5.81200 -0.01864
5.81400 -0.02802
5.81600 -0.04881
5.81800 0.02473
5.82000 -0.02110
5.82200 0.01287
5.82400 -0.00615
5.82600 0.00660
5.82800 -0.03458
5.83000 0.01980
5.83200 0.06825
5.83400 -0.10574
5.83600 -0.05465
5.83800 0.03905
5.84000 0.07418
5.84200 -0.01825
5.84400 -0.07126
5.84600 0.03385
5.84800 0.02932
5.85000 -0.01820
5.85200 0.06311
5.85400 -0.05117
5.85600 0.00358
5.85800 -0.01841
5.86000 0.06639
5.86200 -0.12062
5.86400 -0.01442
5.86600 -0.01124
5.86800 0.07359
5.87000 -0.00235
5.87200 -0.04323
5.87400 -0.00392
5.87600 0.03581
5.87800 -0.04938
5.88000 -0.00316
5.88200 -0.00552
5.88400 0.09383
5.88600 0.01320
5.88800 -0.04750
5.89000 -0.05299
5.89200 -0.03381
5.89400 0.00062
5.89600 -0.00079
5.89800 -0.06222
5.90000 -0.02491
5.90200 -0.02459
5.90400 -0.05762
5.90600 -0.00962
5.90800 0.02324
5.91000 -0.01218
5.91200 0.11276
5.91400 0.01191
5.91600 -0.01651
5.91800 0.08542
5.92000 0.00942
5.92200 0.03041
5.92400 0.02410
5.92600 0.03772
5.92800 -0.02338
5.93000 -0.07173
5.93200 -0.06940
5.93400 -0.00079
5.93600 -0.08490
5.93800 -0.02405
5.94000 0.00985
5.94200 0.07514
5.94400 0.00994
5.94600 0.00842
5.94800 0.09732
5.95000 0.03639
5.95200 0.01136
5.95400 -0.04531
5.95600 -0.08188
5.95800 -0.01736
5.96000 0.04798
5.96200 0.08383
5.96400 -0.06535
5.96600 -0.05689
5.96800 0.08701
5.97000 0.02363
5.97200 0.01127
5.97400 0.06754
5.97600 0.02893
5.97800 0.00143
5.98000 -0.06048
5.98200 -0.02287
5.98400 0.04073
5.98600 -0.01531
5.98800 -0.06899
5.99000 -0.03132
5.99200 0.02325
5.99400 0.00665
5.99600 -0.03862
5.99800 -0.05623
6.00000 -0.05777
6.00200 0.07137
6.00400 0.01199
6.00600 -0.01446
6.00800 -0.12701
6.01000 0.00710
6.01200 0.02654
6.01400 -0.03063
6.01600 -0.00743
6.01800 -0.05249
6.02000 0.02639
6.02200 -0.06248
6.02400 -0.05255
6.02600 -0.10422
6.02800 0.06138
6.03000 -0.07821
6.03200 -0.04542
6.03400 0.03904
6.03600 -0.06889
6.03800 -0.02085
6.04000 0.03690
6.04200 -0.04872
6.04400 0.04770
6.04600 0.06591
6.04800 -0.04426
6.05000 -0.03234
6.05200 0.08714
6.05400 -0.03383
6.05600 -0.07062
6.05800 -0.04726
6.06000 0.09269
6.06200 0.01338
6.06400 0.05258
6.06600 -0.00068
6.06800 0.04673
6.07000 -0.02904
6.07200 0.00235
6.07400 0.00289
6.07600 -0.07535
6.07800 -0.06772
6.08000 0.02196
6.08200 -0.01170
6.08400 0.01650
6.08600 0.02698
6.08800 -0.06111
6.09000 -0.02348
6.09200 -0.00751
6.09400 -0.06052
6.09600 -0.04628
6.09800 -0.08616
6.10000 0.01778
6.10200 0.10087
6.10400 -0.03576
6.10600 0.00707
6.10800 0.06290
6.11000 -0.01948
6.11200 -0.07703
6.11400 -0.01718
6.11600 -0.02183
6.11800 -0.00007
6.12000 -0.04112
6.12200 -0.07198
6.12400 0.00456
6.12600 0.01901
6.12800 -0.01725
6.13000 -0.07665
6.13200 -0.07913
6.13400 -0.05964
6.13600 0.07092
6.13800 0.05440
6.14000 0.03634
6.14200 0.03766
6.14400 0.00733
6.14600 -0.07246
6.14800 -0.08165
6.15000 0.02213
6.15200 -0.03054
6.15400 -0.02516
6.15600 -0.00092
6.15800 0.00166
6.16000 -0.06773
6.16200 0.04294
6.16400 0.02883
6.16600 -0.00278
6.16800 -0.02321
6.17000 -0.02557
6.17200 0.07457
6.17400 -0.01434
6.17600 -0.01902
6.17800 -0.02972
6.18000 0.03883
6.18200 0.04231
6.18400 -0.12289
6.18600 0.12352
6.18800 -0.03881
6.19000 0.07209
6.19200 0.02703
6.19400 0.03603
6.19600 0.08323
6.19800 0.04276
6.20000 0.09303
6.20200 -0.03887
6.20400 0.12413
6.20600 0.02141
6.20800 -0.07414
6.21000 0.05626
6.21200 -0.08576
6.21400 -0.01113
6.21600 -0.01074
6.21800 0.06486
6.22000 0.01499
6.22200 -0.03919
6.22400 0.04624
6.22600 0.01386
6.22800 0.03368
6.23000 0.00800
6.23200 0.25619
6.23400 0.76364
6.23600 1.20230
6.23800 1.50053
6.24000 1.08646
6.24200 0.63814
6.24400 0.21492
6.24600 0.08323
6.24800 0.07574
6.25000 -0.01421
6.25200 0.03205
6.25400 0.06799
6.25600 -0.05551
6.25800 0.06176
6.26000 -0.05767
6.26200 0.07742
6.26400 0.00577
6.26600 -0.00375
6.26800 -0.03598
6.27000 -0.02933
6.27200 -0.00261
6.27400 -0.02076
6.27600 -0.00265
6.27800 0.04835
6.28000 -0.06876
6.28200 -0.10903
6.28400 0.01865
6.28600 0.01366
6.28800 -0.04114
6.29000 -0.03100
6.29200 -0.11411
6.29400 0.11713
6.29600 -0.05823
6.29800 -0.00790
6.30000 -0.02009
6.30200 0.05682
6.30400 0.07563
6.30600 -0.09037
6.30800 -0.07886
6.31000 -0.02356
6.31200 0.03191
6.31400 -0.05396
6.31600 0.02217
6.31800 -0.00390
6.32000 -0.06749
6.32200 -0.20293
6.32400 0.03964
6.32600 -0.03786
6.32800 0.03014
6.33000 -0.00393
6.33200 -0.04831
6.33400 0.04377
6.33600 -0.08602
6.33800 0.01322
6.34000 -0.08161
6.34200 -0.04351
6.34400 0.07270
6.34600 -0.08488
6.34800 -0.02148
6.35000 -0.02561
6.35200 -0.14524
6.35400 0.00638
6.35600 0.07750
6.35800 -0.11599
6.36000 -0.07929
6.36200 -0.04202
6.36400 0.02509
6.36600 -0.00537
6.36800 -0.04819
6.37000 -0.01874
6.37200 0.03666
6.37400 0.02021
6.37600 0.02914
6.37800 0.02463
6.38000 0.03925
6.38200 0.02117
6.38400 0.10890
6.38600 0.11972
6.38800 0.08440
6.39000 -0.07288
6.39200 -0.00700
6.39400 0.01594
6.39600 0.01247
6.39800 -0.08983
6.40000 -0.07229
6.40200 -0.09225
6.40400 -0.11092
6.40600 -0.03477
6.40800 0.08334
6.41000 0.06182
6.41200 -0.02275
6.41400 -0.03848
6.41600 0.01268
6.41800 -0.09132
6.42000 -0.13151
6.42200 0.18182
6.42400 -0.00317
6.42600 0.00671
6.42800 0.00065
6.43000 -0.00206
6.43200 0.06165
6.43400 0.10266
6.43600 -0.01065
6.43800 0.05520
6.44000 -0.00009
6.44200 0.03288
6.44400 0.01770
6.44600 0.06456
6.44800 -0.01554
6.45000 -0.10490
6.45200 -0.06106
6.45400 0.01695
6.45600 0.03730
6.45800 -0.05760
6.46000 0.07899
6.46200 0.07142
6.46400 -0.04857
6.46600 0.00800
6.46800 -0.04056
6.47000 -0.11579
6.47200 -0.04822
6.47400 -0.06199
6.47600 0.06149
6.47800 0.04458
6.48000 0.00872
6.48200 0.09722
6.48400 0.00811
6.48600 0.01400
6.48800 0.03439
6.49000 0.10761
6.49200 0.03073
6.49400 -0.08508
6.49600 0.07454
6.49800 0.06261
6.50000 -0.06515
6.50200 -0.04221
6.50400 0.09902
6.50600 -0.00656
6.50800 -0.08062
6.51000 -0.13456
6.51200 -0.11656
6.51400 0.10210
6.51600 -0.03969
6.51800 0.07059
6.52000 0.03710
6.52200 0.04095
6.52400 -0.02532
6.52600 0.06199
6.52800 -0.08894
6.53000 -0.01305
6.53200 -0.01320
6.53400 0.03181
6.53600 0.00518
6.53800 0.12424
6.54000 -0.00422
6.54200 -0.10841
6.54400 -0.04529
6.54600 -0.03454
6.54800 0.03990
6.55000 0.01953
6.55200 -0.02884
6.55400 0.06152
6.55600 0.10699
6.55800 -0.01045
6.56000 -0.02195
6.56200 -0.03411
6.56400 0.04964
6.56600 0.01446
6.56800 -0.01244
6.57000 -0.05235
6.57200 -0.01769
6.57400 0.01278
6.57600 -0.15618
6.57800 -0.01427
6.58000 -0.01702
6.58200 0.02933
6.58400 0.00602
6.58600 -0.01665
6.58800 0.01708
6.59000 0.12334
6.59200 0.00473
6.59400 -0.08249
6.59600 0.04688
6.59800 -0.03528
6.60000 -0.02273
6.60200 0.11436
6.60400 -0.00380
6.60600 0.04860
6.60800 -0.05042
6.61000 0.03684
6.61200 -0.01708
6.61400 0.09911
6.61600 -0.05000
6.61800 0.02409
6.62000 0.08224
6.62200 0.10825
6.62400 0.06963
6.62600 -0.04771
6.62800 -0.02476
6.63000 -0.03697
6.63200 -0.04477
6.63400 0.03987
6.63600 0.04425
6.63800 0.16530
6.64000 0.05605
6.64200 -0.05716
6.64400 0.01458
6.64600 0.07843
6.64800 0.04517
6.65000 -0.17464
6.65200 0.13107
6.65400 -0.05545
6.65600 0.01706
6.65800 0.04313
6.66000 0.10748
6.66200 0.02290
6.66400 0.00798
6.66600 -0.08296
6.66800 -0.05754
6.67000 -0.02841
6.67200 0.07129
6.67400 0.03492
6.67600 -0.04210
6.67800 0.08010
6.68000 0.08085
6.68200 -0.00828
6.68400 -0.04268
6.68600 -0.05257
6.68800 -0.16078
6.69000 0.13460
6.69200 0.01324
6.69400 -0.01074
6.69600 0.02544
6.69800 -0.01050
6.70000 -0.03881
6.70200 0.03731
6.70400 0.00383
6.70600 0.01711
6.70800 0.07560
6.71000 -0.01660
6.71200 -0.03912
6.71400 0.09552
6.71600 -0.02608
6.71800 -0.09910
6.72000 0.02959
6.72200 -0.00805
6.72400 -0.01095
6.72600 0.07424
6.72800 0.02281
6.73000 0.01763
6.73200 -0.07685
6.73400 -0.03171
6.73600 0.06794
6.73800 -0.10276
6.74000 -0.00863
6.74200 0.05809
6.74400 0.04163
6.74600 0.03069
6.74800 0.02432
6.75000 0.04772
6.75200 -0.06990
6.75400 -0.08655
6.75600 0.06539
6.75800 -0.01576
6.76000 -0.01451
6.76200 0.04079
6.76400 -0.00196
6.76600 0.02652
6.76800 -0.01485
6.77000 0.05803
6.77200 -0.05673
6.77400 -0.16163
6.77600 -0.03857
6.77800 -0.05672
6.78000 -0.02369
6.78200 0.00458
6.78400 -0.04166
6.78600 -0.04710
6.78800 0.02859
6.79000 -0.05762
6.79200 -0.01869
6.79400 -0.01665
6.79600 0.07747
6.79800 -0.03889
6.80000 0.00883
6.80200 -0.05895
6.80400 0.01228
6.80600 -0.13274
6.80800 -0.08083
6.81000 -0.04370
6.81200 -0.01474
6.81400 -0.08215
6.81600 -0.02821
6.81800 -0.04499
6.82000 -0.02218
6.82200 -0.04121
6.82400 0.09098
6.82600 0.26679
6.82800 0.79665
6.83000 1.28998
6.83200 1.45883
6.83400 1.00192
6.83600 0.38993
6.83800 0.12963
6.84000 0.06931
6.84200 -0.02027
6.84400 -0.00613
6.84600 0.02153
6.84800 -0.00745
6.85000 -0.03051
6.85200 -0.07629
6.85400 -0.07332
6.85600 -0.01645
6.85800 0.02422
6.86000 0.05278
6.86200 -0.07458
6.86400 -0.02236
6.86600 -0.10310
6.86800 -0.05029
6.87000 0.01427
6.87200 0.06643
6.87400 -0.00621
6.87600 -0.04118
6.87800 -0.05357
6.88000 0.01460
6.88200 -0.02530
6.88400 -0.03379
6.88600 -0.01484
6.88800 0.05098
6.89000 0.10501
6.89200 -0.00557
6.89400 0.00994
6.89600 -0.15592
6.89800 0.03892
6.90000 -0.00939
6.90200 -0.00391
6.90400 -0.01642
6.90600 0.10678
6.90800 -0.01021
6.91000 0.10107
6.91200 0.09649
6.91400 -0.05546
6.91600 -0.03094
6.91800 0.08303
6.92000 -0.04938
6.92200 -0.02821
6.92400 0.13997
6.92600 -0.02356
6.92800 -0.01018
6.93000 0.00215
6.93200 -0.05523
6.93400 -0.00004
6.93600 0.05230
6.93800 0.00748
6.94000 -0.15042
6.94200 0.01637
6.94400 -0.04392
6.94600 0.09598
6.94800 0.01189
6.95000 -0.00702
6.95200 -0.02379
6.95400 -0.07882
6.95600 0.04910
6.95800 -0.01755
6.96000 0.05782
6.96200 0.07400
6.96400 0.03423
6.96600 -0.02585
6.96800 -0.04781
6.97000 -0.10960
6.97200 -0.01113
6.97400 0.01283
6.97600 -0.00604
6.97800 0.00756
6.98000 0.09596
6.98200 -0.08311
6.98400 -0.17370
6.98600 0.01644
6.98800 0.00920
6.99000 -0.01436
6.99200 0.02914
6.99400 -0.06106
6.99600 0.06089
6.99800 -0.13564
7.00000 0.02125
7.00200 0.07974
7.00400 -0.05732
7.00600 -0.14160
7.00800 -0.07499
7.01000 0.04946
7.01200 -0.03961
7.01400 0.19754
7.01600 -0.00196
7.01800 0.06444
7.02000 0.00554
7.02200 0.01589
7.02400 0.06673
7.02600 0.07922
7.02800 0.07917
7.03000 0.03776
7.03200 -0.03620
7.03400 -0.00396
7.03600 0.03179
7.03800 0.08523
7.04000 -0.06469
7.04200 0.10216
7.04400 0.06990
7.04600 -0.06309
7.04800 0.01574
7.05000 -0.17868
7.05200 -0.07455
7.05400 -0.01082
7.05600 0.01082
7.05800 0.00723
7.06000 0.05741
7.06200 0.00313
7.06400 -0.05317
7.06600 -0.02535
7.06800 0.01059
7.07000 -0.11594
7.07200 0.01196
7.07400 0.09217
7.07600 0.11048
7.07800 0.14244
7.08000 0.08446
7.08200 -0.12393
7.08400 0.03333
7.08600 0.05367
7.08800 -0.08415
7.09000 -0.04768
7.09200 -0.02702
7.09400 0.01409
7.09600 0.06701
7.09800 0.01994
7.10000 0.10399
7.10200 -0.12182
7.10400 0.08463
7.10600 0.03006
7.10800 -0.00797
7.11000 -0.06483
7.11200 -0.04336
7.11400 0.02676
7.11600 -0.03767
7.11800 0.00679
7.12000 0.04713
7.12200 0.02586
7.12400 0.02581
7.12600 0.01624
7.12800 0.00214
7.13000 0.01468
7.13200 -0.06127
7.13400 0.07278
7.13600 -0.05159
7.13800 0.00039
7.14000 -0.07643
7.14200 0.01351
7.14400 -0.06282
7.14600 0.10839
7.14800 -0.02517
7.15000 -0.08036
7.15200 -0.11406
7.15400 -0.10144
7.15600 0.07382
7.15800 0.03730
7.16000 0.03044
7.16200 -0.03924
7.16400 -0.08035
7.16600 0.05608
7.16800 0.11692
7.17000 0.08112
7.17200 -0.10323
7.17400 -0.00225
7.17600 -0.01207
7.17800 0.00418
7.18000 -0.00437
7.18200 -0.05460
7.18400 0.06155
7.18600 0.07354
7.18800 -0.07498
7.19000 -0.04599
7.19200 0.00482
7.19400 0.14146
7.19600 0.10163
7.19800 0.03109
7.20000 -0.02111
7.20200 0.07938
7.20400 0.08642
7.20600 -0.11623
7.20800 -0.08453
7.21000 0.00583
7.21200 -0.00285
7.21400 -0.04609
7.21600 -0.09875
7.21800 0.01563
7.22000 0.07241
7.22200 -0.06108
7.22400 0.04339
7.22600 0.02311
7.22800 -0.07834
7.23000 0.10851
7.23200 0.00452
7.23400 0.09590
7.23600 -0.04487
7.23800 -0.06536
7.24000 0.09724
7.24200 0.07809
7.24400 -0.08983
7.24600 0.05743
7.24800 0.00476
7.25000 0.02415
7.25200 -0.00032
7.25400 0.09114
7.25600 -0.15932
7.25800 -0.03767
7.26000 -0.02582
7.26200 -0.06815
7.26400 -0.09562
7.26600 0.05404
7.26800 0.05213
7.27000 0.14587
7.27200 -0.05273
7.27400 -0.12185
7.27600 0.09050
7.27800 0.03396
7.28000 -0.08578
7.28200 -0.03938
7.28400 -0.07208
7.28600 -0.03883
7.28800 -0.01465
7.29000 0.07209
7.29200 0.08008
7.29400 -0.05670
7.29600 0.06545
7.29800 0.04630
7.30000 -0.06332
7.30200 -0.00290
7.30400 -0.02430
7.30600 -0.08294
7.30800 0.04147
7.31000 0.06909
7.31200 -0.05270
7.31400 -0.07629
7.31600 -0.05566
7.31800 0.04669
7.32000 0.07169
7.32200 -0.02947
7.32400 0.04725
7.32600 -0.06775
7.32800 0.07799
7.33000 0.07567
7.33200 0.04168
7.33400 0.05505
7.33600 0.08673
7.33800 -0.05257
7.34000 0.01831
7.34200 -0.00612
7.34400 -0.05904
7.34600 -0.06185
7.34800 0.02157
7.35000 0.02037
7.35200 -0.00731
7.35400 -0.04377
7.35600 0.03540
7.35800 -0.07749
7.36000 0.01700
7.36200 -0.07596
7.36400 0.06219
7.36600 -0.06819
7.36800 0.04559
7.37000 0.01244
7.37200 -0.00010
7.37400 -0.02012
7.37600 0.06977
7.37800 -0.01485
7.38000 0.00261
7.38200 0.09210
7.38400 0.02280
7.38600 0.03022
7.38800 0.02903
7.39000 -0.12715
7.39200 0.01151
7.39400 -0.02134
7.39600 -0.01900
7.39800 -0.01562
7.40000 -0.01352
7.40200 -0.03659
7.40400 0.05525
7.40600 0.01646
7.40800 0.06134
7.41000 0.01050
7.41200 0.04454
7.41400 -0.01318
7.41600 0.04458
7.41800 -0.01810
7.42000 0.21157
7.42200 0.72262
7.42400 1.21029
7.42600 1.53096
7.42800 1.04745
7.43000 0.49092
7.43200 0.17165
7.43400 0.01167
7.43600 -0.10455
7.43800 -0.01130
7.44000 -0.00198
7.44200 -0.08940
7.44400 -0.05787
7.44600 -0.04870
7.44800 -0.03054
7.45000 0.03358
7.45200 -0.01097
7.45400 -0.00394
7.45600 0.05061
7.45800 0.04083
7.46000 0.13023
7.46200 0.06025
7.46400 0.00569
7.46600 0.08795
7.46800 -0.01494
7.47000 0.00162
7.47200 0.00461
7.47400 0.02207
7.47600 -0.08325
7.47800 0.03306
7.48000 -0.04183
7.48200 0.07371
7.48400 -0.07360
7.48600 -0.01052
7.48800 0.04038
7.49000 -0.00968
7.49200 0.00672
7.49400 0.16298
7.49600 0.03068
7.49800 0.04804
7.50000 0.03669
7.50200 -0.02260
7.50400 0.06421
7.50600 0.01933
7.50800 0.03001
7.51000 0.01476
7.51200 -0.04751
7.51400 0.06540
7.51600 -0.04357
7.51800 -0.03001
7.52000 0.00315
7.52200 -0.03979
7.52400 0.02497
7.52600 0.01248
7.52800 -0.06641
7.53000 0.06621
7.53200 0.00547
7.53400 0.09091
7.53600 0.05578
7.53800 -0.00447
7.54000 -0.08563
7.54200 -0.05778
7.54400 0.01238
7.54600 -0.02065
7.54800 -0.07822
7.55000 0.03554
7.55200 0.03394
7.55400 -0.06592
7.55600 -0.00813
7.55800 -0.01285
7.56000 0.04894
7.56200 -0.01562
7.56400 0.01249
7.56600 -0.03608
7.56800 0.02328
7.57000 0.06914
7.57200 0.08602
7.57400 -0.04366
7.57600 0.05931
7.57800 0.00210
7.58000 -0.11226
7.58200 0.06885
7.58400 0.05820
7.58600 0.03575
7.58800 0.02501
7.59000 0.04509
7.59200 -0.02116
7.59400 0.05522
7.59600 -0.13565
7.59800 -0.02569
7.60000 0.02669
7.60200 -0.00530
7.60400 0.00560
7.60600 -0.06210
7.60800 -0.01385
7.61000 -0.01203
7.61200 0.04833
7.61400 -0.05169
7.61600 0.05297
7.61800 0.05656
7.62000 0.00184
7.62200 -0.00255
7.62400 0.03461
7.62600 -0.06299
7.62800 -0.09173
7.63000 0.03828
7.63200 -0.00692
7.63400 0.00823
7.63600 -0.01242
7.63800 -0.00508
7.64000 -0.07971
7.64200 0.01078
7.64400 0.00045
7.64600 -0.05146
7.64800 0.00168
7.65000 -0.04954
7.65200 0.08294
7.65400 -0.07210
7.65600 0.04707
7.65800 0.04010
7.66000 -0.02968
7.66200 0.06556
7.66400 0.00512
7.66600 -0.02389
7.66800 -0.05837
7.67000 0.01455
7.67200 0.07885
7.67400 0.03951
7.67600 0.02207
7.67800 -0.01359
7.68000 -0.06077
7.68200 -0.00561
7.68400 0.05257
7.68600 -0.03697
7.68800 -0.09692
7.69000 -0.07373
7.69200 -0.02546
7.69400 -0.02455
7.69600 -0.09318
7.69800 0.01467
7.70000 0.04218
7.70200 -0.03558
7.70400 -0.05837
7.70600 0.13393
7.70800 -0.04055
7.71000 0.10265
7.71200 0.06382
7.71400 0.11089
7.71600 -0.08185
7.71800 0.02430
7.72000 0.08649
7.72200 -0.07030
7.72400 0.11181
7.72600 0.06078
7.72800 -0.00754
7.73000 0.05586
7.73200 0.06422
7.73400 0.04328
7.73600 -0.02630
7.73800 0.01548
7.74000 0.00905
7.74200 0.04343
7.74400 -0.09602
7.74600 0.03151
7.74800 -0.13323
7.75000 0.00301
7.75200 -0.03024
7.75400 0.00665
7.75600 0.06680
7.75800 -0.06870
7.76000 0.01755
7.76200 -0.09283
7.76400 0.04909
7.76600 -0.02900
7.76800 -0.00674
7.77000 -0.03472
7.77200 -0.04521
7.77400 0.05050
7.77600 0.04253
7.77800 -0.11220
7.78000 0.07081
7.78200 -0.07295
7.78400 0.03472
7.78600 -0.03240
7.78800 -0.09867
7.79000 -0.02940
7.79200 -0.05460
7.79400 0.00590
7.79600 0.03706
7.79800 0.09034
7.80000 -0.01536
7.80200 0.03854
7.80400 -0.02164
7.80600 0.05870
7.80800 -0.08897
7.81000 0.02555
7.81200 0.05056
7.81400 -0.01229
7.81600 -0.05655
7.81800 0.06354
7.82000 0.00384
7.82200 -0.03503
7.82400 0.02788
7.82600 -0.14136
7.82800 -0.00956
7.83000 0.05258
7.83200 -0.02601
7.83400 0.04073
7.83600 0.03120
7.83800 -0.12433
7.84000 0.00516
7.84200 -0.00482
7.84400 0.10333
7.84600 0.10394
7.84800 -0.03951
7.85000 0.05961
7.85200 0.13001
7.85400 0.12032
7.85600 -0.07535
7.85800 0.00364
7.86000 -0.01945
7.86200 -0.01038
7.86400 -0.02173
7.86600 0.03287
7.86800 0.10734
7.87000 -0.07738
7.87200 -0.01923
7.87400 -0.04263
7.87600 0.04022
7.87800 -0.07171
7.88000 -0.07455
7.88200 -0.05150
7.88400 -0.05577
7.88600 0.00384
7.88800 0.00463
7.89000 -0.05394
7.89200 -0.04308
7.89400 0.03877
7.89600 -0.00968
7.89800 -0.04623
7.90000 0.04692
7.90200 0.06746
7.90400 -0.01883
7.90600 0.06140
7.90800 0.02821
7.91000 -0.10216
7.91200 -0.06233
7.91400 0.01261
7.91600 -0.09063
7.91800 0.01247
7.92000 0.03364
7.92200 0.04699
7.92400 0.02817
7.92600 0.02774
7.92800 0.05974
7.93000 0.10167
7.93200 -0.03511
7.93400 0.01814
7.93600 -0.02862
7.93800 0.05467
7.94000 -0.02608
7.94200 0.02115
7.94400 0.01739
7.94600 -0.03903
7.94800 -0.10746
7.95000 0.03536
7.95200 0.00968
7.95400 0.10920
7.95600 -0.08409
7.95800 0.09229
7.96000 -0.03648
7.96200 0.04025
7.96400 -0.11233
7.96600 -0.10080
7.96800 0.04186
7.97000 0.02257
7.97200 -0.05290
7.97400 0.02088
7.97600 -0.01396
7.97800 0.07669
7.98000 0.07026
7.98200 0.08091
7.98400 0.05651
7.98600 -0.00096
7.98800 -0.08262
7.99000 0.06555
7.99200 0.02159
7.99400 0.06631
7.99600 0.09101
7.99800 -0.00252
8.00000 -0.10143
8.00200 0.00124
8.00400 0.02151
8.00600 -0.01492
8.00800 -0.10808
8.01000 0.11640
8.01200 -0.00763
8.01400 0.22755
8.01600 0.72211
8.01800 1.23529
8.02000 1.50189
8.02200 1.17088
8.02400 0.60856
8.02600 0.20395
8.02800 0.02060
8.03000 -0.03230
8.03200 0.03362
8.03400 -0.06890
8.03600 0.04534
8.03800 0.03145
8.04000 0.00349
8.04200 0.04182
8.04400 -0.07298
8.04600 0.00565
8.04800 0.04939
8.05000 0.00120
8.05200 0.00798
8.05400 0.03126
8.05600 0.01940
8.05800 0.04521
8.06000 0.09900
8.06200 0.03805
8.06400 0.06561
8.06600 0.01477
8.06800 0.02576
8.07000 -0.01958
8.07200 -0.03256
8.07400 0.01437
8.07600 0.00957
8.07800 -0.01784
8.08000 -0.03841
8.08200 0.03187
8.08400 -0.09295
8.08600 0.07701
8.08800 -0.05443
8.09000 -0.01226
8.09200 -0.04735
8.09400 -0.01767
8.09600 -0.01968
8.09800 -0.10062
8.10000 0.00240
8.10200 0.03311
8.10400 0.05452
8.10600 0.13711
8.10800 -0.09311
8.11000 0.05712
8.11200 -0.02849
8.11400 0.01720
8.11600 0.02870
8.11800 -0.02401
8.12000 0.01508
8.12200 -0.08043
8.12400 -0.05698
8.12600 0.00442
8.12800 0.01472
8.13000 0.13505
8.13200 0.01504
8.13400 0.04751
8.13600 0.05897
8.13800 -0.01875
8.14000 -0.00741
8.14200 0.03391
8.14400 -0.06381
8.14600 -0.00730
8.14800 -0.03585
8.15000 0.01403
8.15200 -0.03079
8.15400 0.13761
8.15600 -0.03172
8.15800 -0.10391
8.16000 -0.01744
8.16200 -0.12152
8.16400 0.03337
8.16600 -0.02672
8.16800 -0.06961
8.17000 0.04189
8.17200 -0.07624
8.17400 0.05700
8.17600 -0.09280
8.17800 0.04456
8.18000 0.02400
8.18200 -0.02907
8.18400 -0.05262
8.18600 0.04483
8.18800 0.02460
8.19000 0.02111
8.19200 -0.05351
8.19400 0.00366
8.19600 0.14878
8.19800 0.10265
8.20000 0.16201
8.20200 -0.08276
8.20400 -0.03174
8.20600 -0.01010
8.20800 -0.07707
8.21000 -0.02293
8.21200 -0.00214
8.21400 -0.07577
8.21600 -0.00151
8.21800 -0.00855
8.22000 0.06918
8.22200 -0.01666
8.22400 0.05186
8.22600 0.05589
8.22800 0.01234
8.23000 -0.06755
8.23200 0.01046
8.23400 -0.05998
8.23600 0.02738
8.23800 0.03816
8.24000 -0.04098
8.24200 -0.06377
8.24400 -0.05383
8.24600 -0.01105
8.24800 0.06276
8.25000 0.02733
8.25200 -0.03931
8.25400 -0.02016
8.25600 0.14316
8.25800 0.02541
8.26000 -0.05431
8.26200 0.02852
8.26400 -0.02812
8.26600 0.00138
8.26800 0.07564
8.27000 0.03860
8.27200 0.09451
8.27400 0.18294
8.27600 0.01409
8.27800 0.06136
8.28000 0.02936
8.28200 -0.10469
8.28400 0.05384
8.28600 -0.04357
8.28800 0.09968
8.29000 -0.02743
8.29200 -0.02096
8.29400 -0.08285
8.29600 0.02183
8.29800 0.03892
8.30000 0.03535
8.30200 0.02437
8.30400 0.08051
8.30600 -0.02410
8.30800 -0.00851
8.31000 0.01534
8.31200 0.03705
8.31400 -0.02950
8.31600 0.06147
8.31800 -0.07166
8.32000 0.01021
8.32200 0.04885
8.32400 -0.03624
8.32600 -0.06915
8.32800 -0.06557
8.33000 0.03077
8.33200 0.06962
8.33400 0.02579
8.33600 0.06956
8.33800 0.14664
8.34000 0.06354
8.34200 0.02958
8.34400 -0.05807
8.34600 0.03550
8.34800 0.03371
8.35000 -0.00308
8.35200 0.05104
8.35400 0.01116
8.35600 0.06861
8.35800 0.04553
8.36000 -0.00079
8.36200 0.05238
8.36400 -0.01299
8.36600 0.01846
8.36800 0.06820
8.37000 0.01604
8.37200 -0.01662
8.37400 -0.00341
8.37600 -0.01639
8.37800 -0.00521
8.38000 -0.00330
8.38200 -0.00024
8.38400 -0.10146
8.38600 -0.06566
8.38800 0.04362
8.39000 0.01888
8.39200 -0.06019
8.39400 -0.00167
8.39600 0.01675
8.39800 0.09424
8.40000 0.02141
8.40200 0.00377
8.40400 0.02626
8.40600 0.03505
8.40800 -0.03735
8.41000 -0.04328
8.41200 -0.03493
8.41400 0.08515
8.41600 -0.04138
8.41800 -0.03961
8.42000 0.08539
8.42200 0.05189
8.42400 0.09224
8.42600 0.03105
8.42800 0.04027
8.43000 -0.01304
8.43200 -0.03053
8.43400 0.06927
8.43600 0.01242
8.43800 0.03471
8.44000 0.16535
8.44200 -0.00919
8.44400 -0.01412
8.44600 0.06921
8.44800 0.01246
8.45000 -0.02276
8.45200 -0.03331
8.45400 -0.05542
8.45600 -0.05265
8.45800 0.02305
8.46000 -0.17027
8.46200 -0.16398
8.46400 -0.01273
8.46600 0.11920
8.46800 -0.01427
8.47000 0.01593
8.47200 -0.04047
8.47400 -0.02458
8.47600 0.01148
8.47800 -0.04678
8.48000 0.05965
8.48200 -0.04353
8.48400 0.02232
8.48600 -0.00141
8.48800 0.06850
8.49000 -0.01933
8.49200 -0.06253
8.49400 0.08688
8.49600 -0.07625
8.49800 0.03031
8.50000 -0.01458
8.50200 -0.09784
8.50400 -0.05788
8.50600 0.01678
8.50800 0.00021
8.51000 -0.02842
8.51200 -0.01412
8.51400 -0.01827
8.51600 0.06379
8.51800 0.02571
8.52000 0.03288
8.52200 -0.03166
8.52400 0.05508
8.52600 -0.10317
8.52800 -0.00524
8.53000 0.07301
8.53200 0.07805
8.53400 -0.01197
8.53600 -0.12981
8.53800 -0.00501
8.54000 0.04395
8.54200 0.02831
8.54400 -0.02571
8.54600 -0.00462
8.54800 0.06360
8.55000 -0.05867
8.55200 0.05584
8.55400 0.00383
8.55600 -0.00336
8.55800 0.05983
8.56000 -0.05603
8.56200 -0.00127
8.56400 -0.03936
8.56600 0.03012
8.56800 -0.08266
8.57000 -0.03612
8.57200 0.01351
8.57400 -0.12016
8.57600 0.00656
8.57800 -0.02882
8.58000 0.07875
8.58200 0.08910
8.58400 -0.13454
8.58600 -0.02304
8.58800 0.02400
8.59000 -0.04591
8.59200 0.00163
8.59400 -0.08457
8.59600 -0.08759
8.59800 0.00746
8.60000 0.05205
8.60200 -0.05656
8.60400 -0.01445
8.60600 0.04137
8.60800 0.23223
8.61000 0.56676
8.61200 1.21440
8.61400 1.45275
8.61600 1.21113
8.61800 0.58750
8.62000 0.25749
8.62200 0.06934
8.62400 -0.08817
8.62600 -0.06468
8.62800 -0.02316
8.63000 -0.04506
8.63200 0.03854
8.63400 0.04547
8.63600 -0.02629
8.63800 0.06681
8.64000 -0.01755
8.64200 -0.09132
8.64400 -0.07344
8.64600 -0.10184
8.64800 -0.02458
8.65000 0.05559
8.65200 0.03908
8.65400 0.07434
8.65600 0.04857
8.65800 0.05602
8.66000 -0.02116
8.66200 0.04319
8.66400 -0.04828
8.66600 0.04544
8.66800 -0.00799
8.67000 -0.02502
8.67200 0.06432
8.67400 0.00528
8.67600 -0.08111
8.67800 0.09570
8.68000 -0.02990
8.68200 0.09477
8.68400 0.05613
8.68600 0.05030
8.68800 0.05356
8.69000 0.04450
8.69200 -0.02325
8.69400 -0.10980
8.69600 -0.03626
8.69800 0.05590
8.70000 -0.07820
8.70200 0.01409
8.70400 -0.07903
8.70600 -0.00415
8.70800 -0.03675
8.71000 0.03510
8.71200 -0.02930
8.71400 -0.05263
8.71600 -0.09512
8.71800 0.06353
8.72000 -0.12294
8.72200 -0.02403
8.72400 0.00787
8.72600 0.03515
8.72800 0.02892
8.73000 -0.01243
8.73200 -0.09157
8.73400 -0.04197
8.73600 -0.01051
8.73800 0.01994
8.74000 0.11874
8.74200 0.14853
8.74400 -0.01329
8.74600 -0.00752
8.74800 0.05049
8.75000 -0.00106
8.75200 0.06192
8.75400 -0.00509
8.75600 0.03109
8.75800 0.04144
8.76000 -0.02117
8.76200 0.05883
8.76400 -0.06572
8.76600 0.03895
8.76800 -0.01266
8.77000 0.02054
8.77200 -0.02630
8.77400 0.02778
8.77600 0.07159
8.77800 -0.05603
8.78000 -0.00854
8.78200 0.05837
8.78400 -0.10416
8.78600 -0.07534
8.78800 0.04029
8.79000 -0.08686
8.79200 0.08755
8.79400 0.05865
8.79600 -0.03586
8.79800 0.01596
8.80000 0.06538
8.80200 0.01085
8.80400 -0.03322
8.80600 0.09864
8.80800 -0.01087
8.81000 -0.02874
8.81200 -0.02299
8.81400 0.11923
8.81600 -0.01336
8.81800 0.03806
8.82000 -0.06062
8.82200 0.01955
8.82400 0.03359
8.82600 -0.10725
8.82800 0.00146
8.83000 0.07463
8.83200 0.03218
8.83400 -0.01504
8.83600 -0.00924
8.83800 -0.13175
8.84000 -0.06442
8.84200 0.04663
8.84400 0.05905
8.84600 -0.05718
8.84800 -0.01100
8.85000 -0.00024
8.85200 -0.00927
8.85400 -0.01348
8.85600 -0.00799
8.85800 -0.07184
8.86000 0.02823
8.86200 -0.04936
8.86400 -0.11387
8.86600 -0.00320
8.86800 0.12786
8.87000 0.02314
8.87200 0.09923
8.87400 0.05213
8.87600 0.06124
8.87800 0.00846
8.88000 -0.08731
8.88200 -0.11650
8.88400 -0.04165
8.88600 0.09804
8.88800 0.00927
8.89000 -0.01475
8.89200 -0.08189
8.89400 -0.06937
8.89600 0.08336
8.89800 0.00138
8.90000 -0.02841
8.90200 0.06121
8.90400 0.02469
8.90600 -0.01914
8.90800 0.01041
8.91000 -0.01594
8.91200 -0.09708
8.91400 0.02296
8.91600 0.03485
8.91800 -0.00789
8.92000 -0.02925
8.92200 0.06969
8.92400 0.05333
8.92600 -0.04339
8.92800 0.07897
8.93000 0.01106
8.93200 0.03707
8.93400 -0.03354
8.93600 -0.03286
8.93800 0.00306
8.94000 0.10532
8.94200 0.04887
8.94400 0.06667
8.94600 -0.01816
8.94800 0.05390
8.95000 0.04064
8.95200 0.08925
8.95400 0.04873
8.95600 0.06148
8.95800 0.00517
8.96000 -0.05186
8.96200 -0.07303
8.96400 -0.06453
8.96600 -0.07827
8.96800 0.07399
8.97000 0.01738
8.97200 -0.02669
8.97400 -0.01942
8.97600 0.00048
8.97800 -0.06697
8.98000 -0.04937
8.98200 -0.02189
8.98400 0.04786
8.98600 -0.03955
8.98800 0.03018
8.99000 0.04238
8.99200 -0.04572
8.99400 -0.07129
8.99600 -0.08260
8.99800 -0.11205
9.00000 0.08849
9.00200 -0.13032
9.00400 -0.03337
9.00600 -0.02438
9.00800 -0.00165
9.01000 0.03094
9.01200 -0.12239
9.01400 -0.04631
9.01600 -0.01675
9.01800 -0.06260
9.02000 -0.00876
9.02200 0.03925
9.02400 -0.12303
9.02600 -0.01399
9.02800 0.01505
9.03000 -0.05981
9.03200 -0.09014
9.03400 0.00771
9.03600 0.04859
9.03800 0.02520
9.04000 0.01673
9.04200 -0.03988
9.04400 -0.04625
9.04600 -0.13243
9.04800 0.06325
9.05000 0.02033
9.05200 -0.02086
9.05400 -0.06695
9.05600 0.03780
9.05800 -0.01936
9.06000 0.00380
9.06200 -0.07309
9.06400 -0.02297
9.06600 0.05473
9.06800 0.08408
9.07000 -0.07005
9.07200 -0.10280
9.07400 -0.06573
9.07600 -0.01263
9.07800 -0.04014
9.08000 -0.02479
9.08200 -0.07990
9.08400 -0.01472
9.08600 -0.03198
9.08800 0.01958
9.09000 0.08310
9.09200 0.03627
9.09400 0.03280
9.09600 -0.08271
9.09800 -0.05635
9.10000 -0.04201
9.10200 -0.08081
9.10400 0.00451
9.10600 -0.02609
9.10800 0.06694
9.11000 -0.04548
9.11200 0.05694
9.11400 -0.00830
9.11600 0.03087
9.11800 -0.00037
9.12000 -0.04078
9.12200 -0.00238
9.12400 -0.08054
9.12600 0.05159
9.12800 0.02225
9.13000 0.02055
9.13200 -0.05222
9.13400 0.07842
9.13600 0.00940
9.13800 -0.09299
9.14000 0.00152
9.14200 -0.02402
9.14400 0.01754
9.14600 0.10914
9.14800 0.00328
9.15000 -0.06526
9.15200 0.05997
9.15400 0.00169
9.15600 -0.02334
9.15800 -0.01529
9.16000 -0.07496
9.16200 -0.01643
9.16400 0.03104
9.16600 0.00630
9.16800 0.05700
9.17000 -0.04989
9.17200 -0.01313
9.17400 0.17044
9.17600 0.00983
9.17800 -0.06619
9.18000 0.04331
9.18200 -0.07326
9.18400 -0.04367
9.18600 -0.07382
9.18800 0.01327
9.19000 -0.05928
9.19200 0.12440
9.19400 -0.10511
9.19600 -0.02164
9.19800 0.03618
9.20000 0.02460
9.20200 0.22440
9.20400 0.71042
9.20600 1.27614
9.20800 1.48394
9.21000 1.18636
9.21200 0.58379
9.21400 0.24977
9.21600 0.02814
9.21800 -0.08791
9.22000 0.01757
9.22200 -0.03256
9.22400 -0.02359
9.22600 0.01038
9.22800 0.03558
9.23000 -0.02130
9.23200 -0.00159
9.23400 -0.10024
9.23600 0.08507
9.23800 0.10326
9.24000 -0.04686
9.24200 0.06252
9.24400 0.07395
9.24600 -0.02520
9.24800 -0.09226
9.25000 -0.00288
9.25200 -0.07171
9.25400 -0.03322
9.25600 -0.01492
9.25800 -0.04805
9.26000 0.11275
9.26200 -0.02189
9.26400 -0.01516
9.26600 0.14623
9.26800 0.06744
9.27000 -0.05857
9.27200 0.01224
9.27400 0.01749
9.27600 -0.06926
9.27800 -0.06085
9.28000 -0.01010
9.28200 -0.01795
9.28400 0.03409
9.28600 0.10881
9.28800 0.08741
9.29000 -0.07257
9.29200 0.00559
9.29400 0.01529
9.29600 -0.00023
9.29800 0.12892
9.30000 -0.00394
9.30200 0.00062
9.30400 0.12016
9.30600 0.04355
9.30800 -0.03181
9.31000 0.10170
9.31200 0.06934
9.31400 -0.02226
9.31600 0.01027
9.31800 -0.00931
9.32000 -0.00293
9.32200 0.00757
9.32400 -0.02394
9.32600 -0.01283
9.32800 0.02950
9.33000 -0.01313
9.33200 0.09906
9.33400 0.01087
9.33600 0.00338
9.33800 -0.16135
9.34000 -0.02871
9.34200 0.00609
9.34400 -0.02273
9.34600 0.01259
9.34800 0.08750
9.35000 -0.00371
9.35200 -0.01842
9.35400 -0.05345
9.35600 -0.03570
9.35800 0.02311
9.36000 0.00074
9.36200 0.05299
9.36400 0.00937
9.36600 0.06138
9.36800 -0.01974
9.37000 0.01235
9.37200 0.04546
9.37400 0.03886
9.37600 -0.10155
9.37800 0.00696
9.38000 0.00463
9.38200 0.00140
9.38400 -0.02783
9.38600 0.02912
9.38800 -0.09862
9.39000 0.03450
9.39200 -0.06086
9.39400 0.01327
9.39600 0.01935
9.39800 -0.01336
9.40000 -0.00394
9.40200 0.00821
9.40400 0.00368
9.40600 0.10990
9.40800 -0.07823
9.41000 -0.00157
9.41200 0.05706
9.41400 0.01259
9.41600 -0.02801
9.41800 0.07511
9.42000 -0.04980
9.42200 0.05195
9.42400 0.02738
9.42600 -0.06244
9.42800 0.04796
9.43000 0.02390
9.43200 -0.03670
9.43400 0.03856
9.43600 -0.05366
9.43800 -0.13484
9.44000 0.04283
9.44200 0.07028
9.44400 0.14297
9.44600 -0.04720
9.44800 0.03201
9.45000 0.03603
9.45200 0.02986
9.45400 -0.02971
9.45600 -0.06921
9.45800 -0.02634
9.46000 -0.08156
9.46200 0.04850
9.46400 -0.05728
9.46600 0.03762
9.46800 -0.03835
9.47000 -0.00553
9.47200 -0.01122
9.47400 -0.12988
9.47600 0.03402
9.47800 -0.04965
9.48000 -0.03668
9.48200 0.06466
9.48400 -0.06863
9.48600 -0.02765
9.48800 -0.06560
9.49000 -0.00325
9.49200 0.01335
9.49400 -0.00489
9.49600 0.03807
9.49800 0.00293
9.50000 -0.07748
9.50200 -0.00819
9.50400 0.10172
9.50600 0.06943
9.50800 0.06690
9.51000 -0.03581
9.51200 0.02508
9.51400 0.10178
9.51600 -0.00474
9.51800 -0.00426
9.52000 -0.01209
9.52200 -0.07146
9.52400 0.01847
9.52600 -0.04699
9.52800 -0.09082
9.53000 0.00034
9.53200 -0.09909
9.53400 0.03484
9.53600 0.02252
9.53800 -0.05691
9.54000 0.04490
9.54200 -0.03662
9.54400 0.04007
9.54600 0.09561
9.54800 0.10460
9.55000 -0.00237
9.55200 -0.07416
9.55400 -0.00494
9.55600 0.01904
9.55800 0.04333
9.56000 0.00782
9.56200 -0.00499
9.56400 0.02782
9.56600 -0.02382
9.56800 0.02387
9.57000 -0.05918
9.57200 -0.09905
9.57400 0.09310
9.57600 -0.04043
9.57800 -0.00781
9.58000 -0.07986
9.58200 0.07850
9.58400 0.09773
9.58600 -0.07146
9.58800 0.06323
9.59000 -0.20854
9.59200 0.02197
9.59400 0.00761
9.59600 -0.12021
9.59800 -0.07766
9.60000 0.03000
9.60200 0.08922
9.60400 0.08923
9.60600 -0.04568
9.60800 -0.04243
9.61000 -0.06495
9.61200 0.12214
9.61400 -0.04238
9.61600 0.14394
9.61800 -0.03401
9.62000 0.09459
9.62200 -0.07487
9.62400 -0.00704
9.62600 -0.15080
9.62800 -0.10083
9.63000 -0.02229
9.63200 0.05951
9.63400 0.04366
9.63600 0.00364
9.63800 0.02403
9.64000 -0.14697
9.64200 -0.09255
9.64400 0.02557
9.64600 0.08523
9.64800 -0.05673
9.65000 0.01713
9.65200 -0.04613
9.65400 -0.03658
9.65600 -0.06730
9.65800 -0.04991
9.66000 -0.02141
9.66200 -0.04995
9.66400 -0.01027
9.66600 0.01987
9.66800 -0.06411
9.67000 -0.03611
9.67200 -0.03400
9.67400 0.01382
9.67600 -0.09557
9.67800 0.02638
9.68000 -0.12992
9.68200 0.03978
9.68400 0.09222
9.68600 -0.05067
9.68800 0.03465
9.69000 0.08727
9.69200 0.19867
9.69400 0.00899
9.69600 -0.03344
9.69800 0.06477
9.70000 0.12018
9.70200 -0.00341
9.70400 0.02125
9.70600 0.06091
9.70800 0.02085
9.71000 -0.06084
9.71200 0.05302
9.71400 -0.08343
9.71600 -0.05931
9.71800 -0.00776
9.72000 -0.19696
9.72200 0.01603
9.72400 -0.00333
9.72600 -0.00025
9.72800 0.09737
9.73000 -0.09712
9.73200 -0.02732
9.73400 0.01950
9.73600 0.10011
9.73800 0.14176
9.74000 -0.00106
9.74200 -0.03930
9.74400 -0.06118
9.74600 0.01275
9.74800 -0.07938
9.75000 -0.04405
9.75200 0.07389
9.75400 0.03286
9.75600 0.04536
9.75800 0.01067
9.76000 -0.10127
9.76200 0.06611
9.76400 0.04986
9.76600 0.04808
9.76800 0.03151
9.77000 0.06658
9.77200 -0.04414
9.77400 -0.06903
9.77600 -0.07258
9.77800 -0.01749
9.78000 -0.02906
9.78200 -0.17375
9.78400 -0.03329
9.78600 -0.04327
9.78800 0.00585
9.79000 -0.02372
9.79200 -0.01872
9.79400 0.00428
9.79600 0.21189
9.79800 0.61556
9.80000 1.19648
9.80200 1.54207
9.80400 1.17094
9.80600 0.57602
9.80800 0.26446
9.81000 0.12702
9.81200 -0.06700
9.81400 -0.02593
9.81600 -0.02830
9.81800 -0.07898
9.82000 0.03718
9.82200 -0.07941
9.82400 0.00980
9.82600 0.07321
9.82800 -0.01567
9.83000 -0.04822
9.83200 0.12584
9.83400 0.08460
9.83600 0.04790
9.83800 0.02056
9.84000 0.04117
9.84200 -0.02502
9.84400 -0.06539
9.84600 -0.00334
9.84800 -0.03271
9.85000 -0.07768
9.85200 -0.09191
9.85400 0.01155
9.85600 -0.03739
9.85800 -0.17420
9.86000 0.09952
9.86200 -0.01775
9.86400 -0.07523
9.86600 -0.07920
9.86800 -0.04247
9.87000 -0.03439
9.87200 -0.08703
9.87400 0.07087
9.87600 0.00548
9.87800 -0.01272
9.88000 0.07456
9.88200 -0.00185
9.88400 0.03003
9.88600 0.04347
9.88800 0.02715
9.89000 -0.06249
9.89200 -0.03166
9.89400 -0.04040
9.89600 0.01761
9.89800 -0.05227
9.90000 0.12794
9.90200 -0.02624
9.90400 -0.03297
9.90600 -0.00624
9.90800 -0.01320
9.91000 0.00508
9.91200 -0.07078
9.91400 -0.03897
9.91600 0.03750
9.91800 0.07498
9.92000 0.02252
9.92200 -0.10700
9.92400 -0.06013
9.92600 0.00175
9.92800 -0.01287
9.93000 -0.05613
9.93200 -0.04943
9.93400 -0.07318
9.93600 -0.05710
9.93800 -0.06173
9.94000 0.02917
9.94200 0.03544
9.94400 0.09118
9.94600 -0.00754
9.94800 0.00601
9.95000 0.02796
9.95200 -0.02619
9.95400 0.08232
9.95600 0.00263
9.95800 -0.00568
9.96000 0.01243
9.96200 -0.18275
9.96400 -0.05908
9.96600 0.03759
9.96800 0.08700
9.97000 -0.05739
9.97200 0.05096
9.97400 0.03535
9.97600 -0.00185
9.97800 0.03694
9.98000 -0.03711
9.98200 0.03115
9.98400 -0.09897
9.98600 0.05008
9.98800 -0.03000
9.99000 0.05690
9.99200 0.03760
9.99400 0.11412
9.99600 0.12122
9.99800 0.00152
