cas[s]  ekg[mV]
0.00000 -0.04462
0.00200 -0.02664
0.00400 0.10246
0.00600 -0.07632
0.00800 0.00237
0.01000 -0.06473
0.01200 -0.00940
0.01400 -0.13657
0.01600 -0.08900
0.01800 0.01929
0.02000 0.00265
0.02200 0.03046
0.02400 -0.03457
0.02600 0.00010
0.02800 0.01079
0.03000 -0.04572
0.03200 0.05432
0.03400 0.02229
0.03600 -0.07451
0.03800 -0.02377
0.04000 0.05721
0.04200 -0.06371
0.04400 -0.11745
0.04600 -0.10464
0.04800 0.06609
0.05000 0.03353
0.05200 0.06596
0.05400 -0.01215
0.05600 -0.07179
0.05800 -0.05634
0.06000 0.06652
0.06200 -0.07787
0.06400 0.01453
0.06600 -0.07841
0.06800 0.06188
0.07000 0.04898
0.07200 -0.01801
0.07400 0.03890
0.07600 0.01706
0.07800 0.00215
0.08000 0.01471
0.08200 0.13484
0.08400 -0.12394
0.08600 0.02197
0.08800 -0.01840
0.09000 -0.09098
0.09200 0.08426
0.09400 0.01308
0.09600 -0.06001
0.09800 0.03781
0.10000 -0.03667
0.10200 0.03929
0.10400 -0.10505
0.10600 0.01187
0.10800 0.02380
0.11000 0.03771
0.11200 -0.11488
0.11400 0.04725
0.11600 0.18379
0.11800 0.02234
0.12000 -0.05332
0.12200 -0.04620
0.12400 -0.06991
0.12600 -0.06981
0.12800 0.05319
0.13000 -0.09064
0.13200 0.00614
0.13400 -0.03185
0.13600 0.04525
0.13800 0.01043
0.14000 0.00653
0.14200 0.03402
0.14400 0.07391
0.14600 -0.11424
0.14800 -0.08013
0.15000 0.11372
0.15200 0.01423
0.15400 0.10782
0.15600 -0.04805
0.15800 -0.06659
0.16000 -0.00638
0.16200 -0.00197
0.16400 -0.02048
0.16600 0.04401
0.16800 -0.12394
0.17000 0.06076
0.17200 -0.09670
0.17400 -0.00385
0.17600 0.12867
0.17800 -0.17695
0.18000 -0.02266
0.18200 0.05776
0.18400 0.00075
0.18600 0.01534
0.18800 -0.08447
0.19000 0.00931
0.19200 -0.01626
0.19400 0.05664
0.19600 -0.04025
0.19800 -0.07457
0.20000 0.04228
0.20200 -0.02952
0.20400 -0.09247
0.20600 -0.00010
0.20800 0.04153
0.21000 -0.02995
0.21200 -0.04361
0.21400 0.05335
0.21600 0.04752
0.21800 0.01399
0.22000 0.07124
0.22200 -0.10474
0.22400 -0.11468
0.22600 0.03663
0.22800 -0.00572
0.23000 0.04569
0.23200 0.03633
0.23400 0.02352
0.23600 0.03284
0.23800 -0.05285
0.24000 0.03381
0.24200 -0.10181
0.24400 -0.07491
0.24600 -0.03270
0.24800 0.13077
0.25000 -0.00204
0.25200 0.02525
0.25400 0.07780
0.25600 -0.05448
0.25800 -0.00174
0.26000 0.07029
0.26200 -0.15333
0.26400 0.05244
0.26600 0.09220
0.26800 -0.06575
0.27000 0.01695
0.27200 0.01785
0.27400 -0.08262
0.27600 -0.00190
0.27800 -0.00621
0.28000 -0.03639
0.28200 0.10047
0.28400 -0.08484
0.28600 -0.01591
0.28800 -0.01355
0.29000 0.05420
0.29200 -0.06766
0.29400 -0.09352
0.29600 0.02113
0.29800 -0.06187
0.30000 -0.00264
0.30200 0.04834
0.30400 -0.01842
0.30600 0.07021
0.30800 0.00015
0.31000 0.15479
0.31200 0.62295
0.31400 1.24969
0.31600 1.56396
0.31800 1.10776
0.32000 0.55018
0.32200 0.14750
0.32400 0.01617
0.32600 0.01814
0.32800 0.02871
0.33000 -0.01999
0.33200 0.06451
0.33400 -0.00911
0.33600 -0.08304
0.33800 -0.00500
0.34000 -0.12715
0.34200 0.01148
0.34400 0.00316
0.34600 -0.08299
0.34800 0.07801
0.35000 0.04210
0.35200 -0.03253
0.35400 -0.06474
0.35600 0.01503
0.35800 0.05350
0.36000 -0.04719
0.36200 0.05831
0.36400 0.01402
0.36600 0.00912
0.36800 -0.04376
0.37000 0.01313
0.37200 0.10169
0.37400 0.06171
0.37600 -0.02373
0.37800 0.12305
0.38000 -0.02726
0.38200 -0.05002
0.38400 0.02301
0.38600 0.04150
0.38800 -0.00620
0.39000 0.00849
0.39200 -0.04908
0.39400 -0.08471
0.39600 -0.02010
0.39800 -0.05422
0.40000 -0.14766
0.40200 0.03284
0.40400 0.09099
0.40600 0.11091
0.40800 0.09288
0.41000 -0.00351
0.41200 -0.10826
0.41400 0.04507
0.41600 -0.04350
0.41800 0.02753
0.42000 0.01334
0.42200 -0.08780
0.42400 -0.07282
0.42600 -0.00247
0.42800 0.00195
0.43000 -0.10906
0.43200 0.04707
0.43400 0.00399
0.43600 -0.02778
0.43800 0.01077
0.44000 0.04456
0.44200 0.05261
0.44400 -0.15682
0.44600 -0.02657
0.44800 -0.08384
0.45000 -0.00823
0.45200 -0.08740
0.45400 0.03598
0.45600 0.03066
0.45800 -0.00724
0.46000 0.07939
0.46200 0.07822
0.46400 0.08522
0.46600 -0.03158
0.46800 -0.00065
0.47000 -0.02710
0.47200 -0.01014
0.47400 -0.04075
0.47600 0.03343
0.47800 -0.00288
0.48000 -0.08733
0.48200 -0.07143
0.48400 0.00739
0.48600 0.03608
0.48800 -0.04060
0.49000 0.00725
0.49200 0.14695
0.49400 -0.02641
0.49600 0.08084
0.49800 -0.07590
0.50000 -0.01436
0.50200 -0.03974
0.50400 -0.11235
0.50600 -0.03111
0.50800 -0.01857
0.51000 0.10407
0.51200 -0.08420
0.51400 0.02297
0.51600 0.01969
0.51800 -0.04416
0.52000 -0.09836
0.52200 0.02594
0.52400 -0.00594
0.52600 0.00507
0.52800 -0.05227
0.53000 -0.10000
0.53200 -0.01083
0.53400 0.01418
0.53600 -0.03328
0.53800 -0.01789
0.54000 0.10183
0.54200 -0.05694
0.54400 -0.02960
0.54600 -0.03219
0.54800 0.12677
0.55000 0.09773
0.55200 0.06387
0.55400 -0.10490
0.55600 -0.01162
0.55800 0.04165
0.56000 0.00216
0.56200 -0.00237
0.56400 0.08724
0.56600 -0.04539
0.56800 0.02645
0.57000 -0.00694
0.57200 -0.02348
0.57400 0.00604
0.57600 0.09225
0.57800 0.00445
0.58000 0.01736
0.58200 0.06734
0.58400 -0.01972
0.58600 -0.05429
0.58800 0.13294
0.59000 -0.07932
0.59200 0.08005
0.59400 -0.06478
0.59600 0.00295
0.59800 -0.01505
0.60000 0.20819
0.60200 -0.02105
0.60400 -0.02583
0.60600 -0.11596
0.60800 0.05927
0.61000 -0.10963
0.61200 0.02054
0.61400 0.02087
0.61600 0.02847
0.61800 0.11039
0.62000 -0.02831
0.62200 0.08163
0.62400 0.05795
0.62600 0.07864
0.62800 0.04470
0.63000 0.07769
0.63200 0.09486
0.63400 -0.06498
0.63600 -0.02995
0.63800 -0.06493
0.64000 -0.06571
0.64200 0.02654
0.64400 0.01441
0.64600 -0.01920
0.64800 -0.00186
0.65000 -0.04294
0.65200 -0.05535
0.65400 -0.03316
0.65600 -0.06528
0.65800 -0.02829
0.66000 0.04651
0.66200 0.01998
0.66400 0.02578
0.66600 -0.12439
0.66800 0.10794
0.67000 -0.11193
0.67200 0.01781
0.67400 -0.03446
0.67600 0.04858
0.67800 -0.07195
0.68000 0.11625
0.68200 0.05796
0.68400 -0.10149
0.68600 0.04663
0.68800 -0.06485
0.69000 0.01250
0.69200 0.08952
0.69400 0.00657
0.69600 -0.05010
0.69800 -0.05554
0.70000 -0.04267
0.70200 0.03562
0.70400 0.01479
0.70600 0.01679
0.70800 -0.01437
0.71000 -0.03803
0.71200 0.04632
0.71400 -0.13721
0.71600 -0.02848
0.71800 0.15263
0.72000 0.11235
0.72200 0.03508
0.72400 -0.09620
0.72600 0.00001
0.72800 0.09397
0.73000 0.03311
0.73200 -0.01857
0.73400 -0.00458
0.73600 0.04027
0.73800 0.00799
0.74000 0.12853
0.74200 0.00251
0.74400 0.07641
0.74600 0.12605
0.74800 -0.02258
0.75000 -0.05098
0.75200 -0.00886
0.75400 0.03548
0.75600 0.01565
0.75800 0.06868
0.76000 0.04026
0.76200 0.05935
0.76400 -0.03339
0.76600 0.01601
0.76800 0.09444
0.77000 -0.02724
0.77200 0.01704
0.77400 0.00243
0.77600 -0.03352
0.77800 -0.00430
0.78000 0.05226
0.78200 0.06375
0.78400 -0.03059
0.78600 0.04378
0.78800 -0.00974
0.79000 0.02087
0.79200 0.01106
0.79400 -0.05127
0.79600 0.06290
0.79800 -0.01216
0.80000 -0.03216
0.80200 0.01099
0.80400 -0.06473
0.80600 0.00390
0.80800 -0.05944
0.81000 -0.03481
0.81200 -0.00872
0.81400 0.04218
0.81600 -0.00492
0.81800 -0.00004
0.82000 -0.07242
0.82200 0.00928
0.82400 -0.14135
0.82600 -0.03525
0.82800 -0.18182
0.83000 0.06704
0.83200 0.02175
0.83400 0.04282
0.83600 0.04770
0.83800 0.01457
0.84000 -0.11622
0.84200 -0.06276
0.84400 -0.06376
0.84600 -0.09346
0.84800 0.01736
0.85000 0.07172
0.85200 0.06014
0.85400 0.00486
0.85600 -0.03664
0.85800 0.03399
0.86000 -0.03724
0.86200 0.09171
0.86400 -0.03006
0.86600 -0.02448
0.86800 -0.02493
0.87000 -0.11143
0.87200 -0.04053
0.87400 0.11664
0.87600 0.03076
0.87800 0.00152
0.88000 -0.00281
0.88200 0.00413
0.88400 -0.03281
0.88600 0.07758
0.88800 0.00268
0.89000 0.05530
0.89200 -0.10158
0.89400 0.08924
0.89600 0.12752
0.89800 0.00503
0.90000 0.02484
0.90200 -0.05244
0.90400 0.08171
0.90600 -0.14193
0.90800 -0.05928
0.91000 -0.13865
0.91200 0.04767
0.91400 0.02675
0.91600 0.03313
0.91800 0.01167
0.92000 -0.11996
0.92200 0.07997
0.92400 -0.04098
0.92600 0.02630
0.92800 -0.04317
0.93000 -0.04565
0.93200 -0.02821
0.93400 0.06119
0.93600 0.01600
0.93800 0.05690
0.94000 0.04660
0.94200 0.38882
0.94400 0.76530
0.94600 1.34770
0.94800 1.40305
0.95000 1.05437
0.95200 0.52747
0.95400 0.10699
0.95600 -0.06323
0.95800 -0.10388
0.96000 -0.09556
0.96200 0.04735
0.96400 0.05871
0.96600 -0.03731
0.96800 0.01837
0.97000 0.08197
0.97200 0.02227
0.97400 0.00158
0.97600 0.03978
0.97800 0.00924
0.98000 -0.08925
0.98200 0.03518
0.98400 0.07971
0.98600 -0.02316
0.98800 -0.02603
0.99000 0.04063
0.99200 0.06515
0.99400 -0.09993
0.99600 0.06974
0.99800 0.04337
1.00000 0.00687
1.00200 -0.04919
1.00400 0.00358
1.00600 -0.04108
1.00800 -0.00659
1.01000 0.06080
1.01200 -0.10963
1.01400 -0.02583
1.01600 0.02096
1.01800 0.09899
1.02000 -0.12007
1.02200 0.00800
1.02400 0.07804
1.02600 -0.01196
1.02800 0.04566
1.03000 -0.03031
1.03200 0.12991
1.03400 -0.02181
1.03600 0.01669
1.03800 -0.04103
1.04000 0.16069
1.04200 -0.05129
1.04400 0.05710
1.04600 0.14511
1.04800 -0.01948
1.05000 -0.13626
1.05200 -0.01868
1.05400 -0.04462
1.05600 0.07438
1.05800 -0.00102
1.06000 -0.13233
1.06200 -0.01831
1.06400 -0.08143
1.06600 0.08449
1.06800 0.00018
1.07000 0.00070
1.07200 -0.03578
1.07400 -0.06096
1.07600 -0.08340
1.07800 -0.06271
1.08000 -0.00143
1.08200 -0.01958
1.08400 0.10414
1.08600 -0.00507
1.08800 -0.08148
1.09000 0.09129
1.09200 -0.03192
1.09400 0.06907
1.09600 -0.12253
1.09800 -0.02879
1.10000 -0.00148
1.10200 0.03227
1.10400 -0.01661
1.10600 -0.11987
1.10800 0.03183
1.11000 -0.04975
1.11200 -0.00190
1.11400 0.03457
1.11600 0.03703
1.11800 0.03146
1.12000 -0.04353
1.12200 0.01984
1.12400 -0.01281
1.12600 0.00270
1.12800 -0.06115
1.13000 0.08383
1.13200 0.04031
1.13400 -0.07101
1.13600 0.00358
1.13800 -0.00686
1.14000 -0.04204
1.14200 -0.12647
1.14400 -0.09596
1.14600 -0.04099
1.14800 -0.00034
1.15000 -0.02990
1.15200 0.05948
1.15400 -0.00933
1.15600 0.07576
1.15800 0.00745
1.16000 0.04794
1.16200 0.12023
1.16400 0.02579
1.16600 0.01108
1.16800 0.01670
1.17000 0.10342
1.17200 -0.05541
1.17400 -0.13122
1.17600 -0.02460
1.17800 0.04466
1.18000 -0.04305
1.18200 -0.04316
1.18400 -0.13386
1.18600 -0.05591
1.18800 -0.02145
1.19000 0.01965
1.19200 0.00771
1.19400 0.05617
1.19600 -0.01439
1.19800 -0.00010
1.20000 0.07964
1.20200 -0.03325
1.20400 -0.01170
1.20600 -0.03546
1.20800 -0.01875
1.21000 -0.06625
1.21200 -0.00504
1.21400 -0.00943
1.21600 0.00931
1.21800 -0.05659
1.22000 -0.00331
1.22200 -0.03980
1.22400 -0.04400
1.22600 0.05438
1.22800 -0.03174
1.23000 0.09052
1.23200 -0.02645
1.23400 0.00507
1.23600 -0.06581
1.23800 -0.03634
1.24000 -0.11493
1.24200 0.01205
1.24400 -0.01698
1.24600 -0.08752
1.24800 -0.06612
1.25000 0.02484
1.25200 0.00447
1.25400 -0.00945
1.25600 0.03370
1.25800 0.02984
1.26000 0.04274
1.26200 0.04141
1.26400 0.08425
1.26600 0.01023
1.26800 0.02388
1.27000 0.01960
1.27200 0.11013
1.27400 0.06057
1.27600 0.03908
1.27800 -0.05918
1.28000 -0.09551
1.28200 0.02103
1.28400 0.00992
1.28600 -0.00173
1.28800 0.00827
1.29000 -0.03339
1.29200 0.05127
1.29400 -0.03743
1.29600 -0.03175
1.29800 -0.03926
1.30000 -0.02249
1.30200 -0.12857
1.30400 -0.05657
1.30600 0.01960
1.30800 -0.08875
1.31000 -0.04677
1.31200 0.05871
1.31400 -0.02300
1.31600 0.08811
1.31800 0.00298
1.32000 0.00562
1.32200 -0.03988
1.32400 -0.14445
1.32600 0.00379
1.32800 -0.08267
1.33000 -0.00585
1.33200 0.00209
1.33400 0.04351
1.33600 -0.05266
1.33800 0.00983
1.34000 -0.00568
1.34200 0.03338
1.34400 0.02053
1.34600 -0.05392
1.34800 -0.05604
1.35000 -0.04156
1.35200 -0.05753
1.35400 -0.01741
1.35600 0.05366
1.35800 -0.12060
1.36000 0.05959
1.36200 -0.02767
1.36400 0.01908
1.36600 -0.02639
1.36800 0.04962
1.37000 -0.08620
1.37200 0.04300
1.37400 0.07914
1.37600 -0.08897
1.37800 -0.04205
1.38000 0.00438
1.38200 -0.04698
1.38400 -0.06536
1.38600 0.09380
1.38800 0.03033
1.39000 0.10603
1.39200 0.03935
1.39400 0.04901
1.39600 0.04572
1.39800 -0.01958
1.40000 0.08185
1.40200 -0.04845
1.40400 -0.01556
1.40600 -0.05867
1.40800 0.06651
1.41000 0.00124
1.41200 -0.00208
1.41400 0.06833
1.41600 -0.07361
1.41800 -0.07068
1.42000 0.08375
1.42200 -0.09115
1.42400 -0.16455
1.42600 0.04906
1.42800 0.00557
1.43000 0.13207
1.43200 -0.02144
1.43400 -0.04352
1.43600 -0.06713
1.43800 0.01336
1.44000 -0.05446
1.44200 0.16888
1.44400 0.02333
1.44600 -0.04423
1.44800 -0.01126
1.45000 -0.01225
1.45200 -0.08237
1.45400 -0.01635
1.45600 -0.08439
1.45800 0.02626
1.46000 -0.02300
1.46200 -0.05651
1.46400 -0.08203
1.46600 -0.00282
1.46800 0.06231
1.47000 -0.13691
1.47200 -0.03538
1.47400 0.05372
1.47600 0.02234
1.47800 0.04669
1.48000 -0.02875
1.48200 -0.03765
1.48400 -0.01698
1.48600 -0.04045
1.48800 0.02873
1.49000 0.06029
1.49200 -0.01307
1.49400 -0.03108
1.49600 -0.06513
1.49800 -0.09634
1.50000 0.08201
1.50200 0.02586
1.50400 -0.01882
1.50600 0.06724
1.50800 0.04939
1.51000 -0.06018
1.51200 -0.02959
1.51400 -0.04626
1.51600 0.09880
1.51800 0.00631
1.52000 -0.08852
1.52200 -0.03952
1.52400 0.11849
1.52600 -0.01158
1.52800 -0.07643
1.53000 -0.07437
1.53200 0.15970
1.53400 0.10863
1.53600 -0.04993
1.53800 0.03101
1.54000 -0.03764
1.54200 -0.02467
1.54400 0.03278
1.54600 -0.02667
1.54800 -0.02224
1.55000 0.06456
1.55200 0.04947
1.55400 0.05464
1.55600 -0.13518
1.55800 0.00758
1.56000 -0.08611
1.56200 0.00609
1.56400 -0.01806
1.56600 0.02538
1.56800 -0.04129
1.57000 0.05938
1.57200 0.14442
1.57400 0.36253
1.57600 0.99031
1.57800 1.57989
1.58000 1.43892
1.58200 0.95120
1.58400 0.37562
1.58600 0.18447
1.58800 0.05777
1.59000 0.05805
1.59200 -0.02207
1.59400 0.04435
1.59600 -0.07264
1.59800 -0.05046
1.60000 -0.05667
1.60200 0.02473
1.60400 -0.08380
1.60600 -0.01028
1.60800 0.05809
1.61000 0.03692
1.61200 0.03217
1.61400 -0.00304
1.61600 0.01474
1.61800 0.01223
1.62000 0.00827
1.62200 0.08711
1.62400 0.02075
1.62600 -0.06811
1.62800 -0.03136
1.63000 0.10799
1.63200 0.01129
1.63400 -0.03448
1.63600 -0.03461
1.63800 -0.00499
1.64000 0.12200
1.64200 -0.02496
1.64400 -0.02822
1.64600 0.01626
1.64800 -0.04176
1.65000 -0.04356
1.65200 -0.03377
1.65400 -0.10984
1.65600 -0.04261
1.65800 0.05099
1.66000 0.01435
1.66200 0.02504
1.66400 -0.01188
1.66600 -0.02374
1.66800 -0.02106
1.67000 -0.04179
1.67200 0.00019
1.67400 0.05681
1.67600 -0.07741
1.67800 -0.11443
1.68000 0.05492
1.68200 -0.04807
1.68400 -0.01743
1.68600 -0.05823
1.68800 0.00605
1.69000 -0.00732
1.69200 0.04237
1.69400 0.03878
1.69600 -0.01502
1.69800 -0.05072
1.70000 -0.03793
1.70200 0.04614
1.70400 0.05054
1.70600 0.00449
1.70800 -0.03885
1.71000 -0.05295
1.71200 0.00389
1.71400 -0.01596
1.71600 0.09411
1.71800 -0.12968
1.72000 -0.03443
1.72200 0.02735
1.72400 -0.01581
1.72600 0.00141
1.72800 -0.08267
1.73000 -0.03872
1.73200 0.05267
1.73400 -0.03129
1.73600 -0.05517
1.73800 0.05088
1.74000 0.01900
1.74200 -0.10083
1.74400 -0.00276
1.74600 -0.03084
1.74800 -0.02170
1.75000 -0.00962
1.75200 -0.12056
1.75400 0.07828
1.75600 0.00292
1.75800 -0.08265
1.76000 -0.15359
1.76200 0.01400
1.76400 -0.09431
1.76600 -0.04077
1.76800 -0.06740
1.77000 -0.00147
1.77200 0.04930
1.77400 0.04704
1.77600 0.01367
1.77800 0.04453
1.78000 0.03815
1.78200 -0.02908
1.78400 -0.04198
1.78600 -0.03224
1.78800 0.03629
1.79000 -0.00159
1.79200 0.05319
1.79400 -0.00755
1.79600 0.09245
1.79800 -0.02724
1.80000 -0.00208
1.80200 0.03528
1.80400 -0.14012
1.80600 -0.09241
1.80800 -0.03288
1.81000 0.02283
1.81200 0.00598
1.81400 0.08412
1.81600 0.01673
1.81800 0.04779
1.82000 0.04305
1.82200 0.06303
1.82400 -0.01545
1.82600 -0.03109
1.82800 -0.12202
1.83000 0.08674
1.83200 -0.02857
1.83400 0.00868
1.83600 -0.08074
1.83800 -0.04256
1.84000 -0.00237
1.84200 0.09271
1.84400 0.03868
1.84600 -0.10462
1.84800 -0.02474
1.85000 0.02209
1.85200 0.05573
1.85400 -0.12339
1.85600 -0.02378
1.85800 0.06255
1.86000 0.01711
1.86200 -0.00848
1.86400 -0.03200
1.86600 -0.04122
1.86800 0.01638
1.87000 -0.02500
1.87200 -0.10745
1.87400 -0.04321
1.87600 0.02538
1.87800 0.18078
1.88000 0.13249
1.88200 0.01839
1.88400 0.04088
1.88600 -0.08901
1.88800 -0.12542
1.89000 -0.01906
1.89200 -0.06485
1.89400 0.11944
1.89600 -0.08536
1.89800 -0.02803
1.90000 -0.01466
1.90200 -0.00804
1.90400 -0.06529
1.90600 -0.02977
1.90800 -0.00383
1.91000 0.07293
1.91200 -0.02222
1.91400 -0.05785
1.91600 0.00261
1.91800 0.00927
1.92000 0.04679
1.92200 0.06745
1.92400 0.09704
1.92600 0.05195
1.92800 -0.01879
1.93000 0.04970
1.93200 0.17064
1.93400 0.00188
1.93600 0.08197
1.93800 -0.06451
1.94000 -0.05427
1.94200 0.04737
1.94400 -0.05476
1.94600 -0.02053
1.94800 0.10423
1.95000 -0.06533
1.95200 -0.00179
1.95400 -0.03169
1.95600 0.05971
1.95800 -0.05868
1.96000 0.01740
1.96200 -0.00849
1.96400 -0.04134
1.96600 0.04215
1.96800 -0.01341
1.97000 0.10854
1.97200 -0.03449
1.97400 -0.02911
1.97600 -0.03811
1.97800 -0.17725
1.98000 -0.01298
1.98200 -0.04378
1.98400 -0.03595
1.98600 0.06991
1.98800 0.06140
1.99000 0.09685
1.99200 -0.09427
1.99400 -0.03868
1.99600 -0.01586
1.99800 0.03480
2.00000 0.13358
2.00200 0.01369
2.00400 0.01232
2.00600 0.00770
2.00800 0.04431
2.01000 0.02018
2.01200 -0.12760
2.01400 -0.05280
2.01600 -0.07436
2.01800 -0.00072
2.02000 -0.02184
2.02200 0.06270
2.02400 -0.05113
2.02600 -0.00837
2.02800 0.04988
2.03000 0.06484
2.03200 0.06413
2.03400 -0.04138
2.03600 -0.09252
2.03800 0.02264
2.04000 -0.04898
2.04200 -0.01368
2.04400 -0.07981
2.04600 -0.04368
2.04800 -0.02298
2.05000 0.03789
2.05200 0.00024
2.05400 0.02141
2.05600 -0.05144
2.05800 0.02040
2.06000 0.04278
2.06200 -0.03751
2.06400 0.05296
2.06600 0.06048
2.06800 0.00308
2.07000 -0.05884
2.07200 -0.03158
2.07400 0.05546
2.07600 0.08500
2.07800 -0.08272
2.08000 0.01366
2.08200 0.01654
2.08400 0.00541
2.08600 0.04861
2.08800 0.02953
2.09000 -0.05030
2.09200 0.02894
2.09400 0.06361
2.09600 -0.03707
2.09800 -0.04780
2.10000 -0.07896
2.10200 0.06555
2.10400 -0.10551
2.10600 -0.03708
2.10800 0.01627
2.11000 0.08357
2.11200 0.05583
2.11400 0.07654
2.11600 -0.00405
2.11800 -0.11555
2.12000 0.00990
2.12200 -0.03817
2.12400 -0.03230
2.12600 0.03015
2.12800 0.03898
2.13000 0.04144
2.13200 0.02977
2.13400 -0.00920
2.13600 0.03168
2.13800 -0.04948
2.14000 -0.00985
2.14200 0.00755
2.14400 -0.02707
2.14600 -0.05035
2.14800 0.04305
2.15000 -0.01935
2.15200 0.03950
2.15400 0.07919
2.15600 0.00746
2.15800 -0.00365
2.16000 0.03215
2.16200 0.01144
2.16400 0.00593
2.16600 0.06848
2.16800 -0.04332
2.17000 0.06788
2.17200 0.07714
2.17400 0.00176
2.17600 0.08628
2.17800 -0.06178
2.18000 0.00716
2.18200 -0.12707
2.18400 -0.06884
2.18600 0.01043
2.18800 -0.00632
2.19000 0.05654
2.19200 -0.04649
2.19400 -0.05514
2.19600 0.09854
2.19800 -0.05246
2.20000 -0.16397
2.20200 0.04518
2.20400 0.20411
2.20600 0.45221
2.20800 1.01727
2.21000 1.42935
2.21200 1.36884
2.21400 0.81192
2.21600 0.21458
2.21800 0.08413
2.22000 0.02553
2.22200 -0.01944
2.22400 -0.11561
2.22600 0.06343
2.22800 -0.03300
2.23000 0.08199
2.23200 -0.05412
2.23400 0.02034
2.23600 0.08769
2.23800 0.05448
2.24000 -0.00075
2.24200 -0.04330
2.24400 -0.04052
2.24600 -0.13149
2.24800 -0.10233
2.25000 0.02493
2.25200 0.00237
2.25400 0.01581
2.25600 0.03088
2.25800 0.01197
2.26000 0.00193
2.26200 -0.02392
2.26400 0.04675
2.26600 0.00529
2.26800 0.06543
2.27000 0.14330
2.27200 -0.02009
2.27400 -0.00965
2.27600 0.10335
2.27800 0.01880
2.28000 0.04964
2.28200 0.12840
2.28400 0.03628
2.28600 -0.09933
2.28800 -0.03736
2.29000 -0.00577
2.29200 0.00178
2.29400 -0.02046
2.29600 -0.06478
2.29800 0.01706
2.30000 -0.02626
2.30200 -0.03669
2.30400 0.04865
2.30600 -0.05936
2.30800 0.01935
2.31000 -0.01047
2.31200 0.07211
2.31400 0.15267
2.31600 0.01628
2.31800 -0.02320
2.32000 -0.06171
2.32200 -0.00614
2.32400 0.01474
2.32600 0.04953
2.32800 -0.09196
2.33000 -0.07843
2.33200 0.00229
2.33400 -0.01015
2.33600 0.09140
2.33800 -0.09756
2.34000 -0.16853
2.34200 0.11017
2.34400 0.02633
2.34600 0.00202
2.34800 -0.00487
2.35000 -0.02882
2.35200 -0.12748
2.35400 0.03803
2.35600 -0.05949
2.35800 0.04293
2.36000 -0.00419
2.36200 -0.02690
2.36400 0.06509
2.36600 -0.09102
2.36800 0.08386
2.37000 -0.04057
2.37200 0.09412
2.37400 -0.10264
2.37600 -0.14800
2.37800 0.13541
2.38000 0.10021
2.38200 0.08249
2.38400 -0.03443
2.38600 0.10264
2.38800 0.06051
2.39000 0.06571
2.39200 -0.01108
2.39400 -0.05296
2.39600 -0.07768
2.39800 -0.02640
2.40000 -0.00002
2.40200 0.07365
2.40400 0.01054
2.40600 -0.08396
2.40800 -0.00350
2.41000 0.05018
2.41200 0.07976
2.41400 0.02721
2.41600 0.10314
2.41800 -0.07134
2.42000 -0.02506
2.42200 -0.01753
2.42400 -0.06705
2.42600 -0.01026
2.42800 0.03920
2.43000 -0.02896
2.43200 -0.05657
2.43400 -0.04141
2.43600 -0.00310
2.43800 0.05785
2.44000 -0.05073
2.44200 0.09097
2.44400 -0.02687
2.44600 -0.04299
2.44800 -0.00134
2.45000 -0.11152
2.45200 0.02067
2.45400 0.07595
2.45600 -0.00292
2.45800 0.03534
2.46000 0.11959
2.46200 0.00607
2.46400 -0.00261
2.46600 0.00052
2.46800 0.01315
2.47000 -0.09768
2.47200 -0.13225
2.47400 0.03416
2.47600 -0.01658
2.47800 0.13802
2.48000 0.06931
2.48200 -0.00674
2.48400 -0.00009
2.48600 -0.06654
2.48800 0.10789
2.49000 -0.03885
2.49200 -0.00940
2.49400 0.00822
2.49600 0.05851
2.49800 -0.06685
2.50000 -0.14259
2.50200 -0.08844
2.50400 -0.03050
2.50600 0.02094
2.50800 -0.08431
2.51000 0.05348
2.51200 0.01336
2.51400 -0.08621
2.51600 0.04515
2.51800 0.11817
2.52000 -0.04642
2.52200 -0.00835
2.52400 0.10334
2.52600 0.01999
2.52800 0.02305
2.53000 0.05374
2.53200 0.03899
2.53400 0.01679
2.53600 0.06127
2.53800 0.17059
2.54000 0.03048
2.54200 -0.08655
2.54400 -0.11144
2.54600 -0.03197
2.54800 0.00760
2.55000 -0.14094
2.55200 0.00829
2.55400 -0.08671
2.55600 -0.06336
2.55800 -0.04694
2.56000 -0.04117
2.56200 -0.00878
2.56400 -0.11422
2.56600 -0.01403
2.56800 -0.04865
2.57000 0.05526
2.57200 -0.10588
2.57400 -0.05293
2.57600 0.02661
2.57800 0.01301
2.58000 -0.01562
2.58200 -0.02903
2.58400 0.01689
2.58600 -0.04393
2.58800 -0.06910
2.59000 0.04335
2.59200 -0.05310
2.59400 -0.05999
2.59600 -0.02976
2.59800 -0.02445
2.60000 -0.02976
2.60200 0.06828
2.60400 0.07881
2.60600 0.00540
2.60800 -0.02734
2.61000 -0.00296
2.61200 0.07090
2.61400 0.00158
2.61600 -0.00380
2.61800 -0.08345
2.62000 -0.02180
2.62200 -0.03244
2.62400 -0.00611
2.62600 0.06844
2.62800 -0.10436
2.63000 0.08180
2.63200 0.05030
2.63400 0.04178
2.63600 0.10538
2.63800 0.01891
2.64000 -0.02660
2.64200 -0.05816
2.64400 0.06229
2.64600 0.05451
2.64800 0.00607
2.65000 0.05504
2.65200 -0.00730
2.65400 0.00260
2.65600 -0.06582
2.65800 -0.12681
2.66000 -0.10766
2.66200 -0.05623
2.66400 0.03240
2.66600 0.01892
2.66800 -0.06125
2.67000 0.00299
2.67200 0.03640
2.67400 -0.04154
2.67600 -0.04697
2.67800 0.01684
2.68000 0.05737
2.68200 -0.01414
2.68400 0.05769
2.68600 0.05463
2.68800 -0.00875
2.69000 0.04451
2.69200 -0.00438
2.69400 -0.00934
2.69600 0.01568
2.69800 0.05029
2.70000 0.06248
2.70200 0.00215
2.70400 0.02012
2.70600 0.02280
2.70800 -0.09498
2.71000 0.01213
2.71200 0.04323
2.71400 -0.11626
2.71600 0.01220
2.71800 -0.05500
2.72000 0.07663
2.72200 0.06724
2.72400 0.11103
2.72600 -0.02602
2.72800 0.06261
2.73000 -0.08753
2.73200 -0.03543
2.73400 0.05776
2.73600 0.00825
2.73800 0.01607
2.74000 0.03942
2.74200 -0.02138
2.74400 -0.14354
2.74600 -0.02138
2.74800 -0.01924
2.75000 0.09166
2.75200 -0.08964
2.75400 0.00880
2.75600 -0.02056
2.75800 -0.08135
2.76000 0.07421
2.76200 0.13334
2.76400 -0.00817
2.76600 -0.02832
2.76800 -0.12376
2.77000 -0.02876
2.77200 0.06642
2.77400 -0.02569
2.77600 -0.02309
2.77800 -0.10610
2.78000 0.08121
2.78200 -0.10037
2.78400 0.06774
2.78600 -0.00405
2.78800 0.09135
2.79000 0.04140
2.79200 -0.00823
2.79400 -0.00778
2.79600 -0.10777
2.79800 -0.06350
2.80000 -0.09215
2.80200 -0.04893
2.80400 -0.02895
2.80600 0.03494
2.80800 0.05759
2.81000 0.05707
2.81200 0.01167
2.81400 0.03054
2.81600 0.12369
2.81800 0.02093
2.82000 0.01464
2.82200 -0.02731
2.82400 0.05745
2.82600 0.10753
2.82800 0.05988
2.83000 -0.00628
2.83200 0.03536
2.83400 0.05509
2.83600 0.16746
2.83800 0.53182
2.84000 1.20906
2.84200 1.55877
2.84400 1.22649
2.84600 0.60557
2.84800 0.30935
2.85000 0.06619
2.85200 0.04278
2.85400 0.03356
2.85600 0.04321
2.85800 -0.03056
2.86000 0.04015
2.86200 0.02524
2.86400 0.01791
2.86600 0.01833
2.86800 -0.02106
2.87000 -0.00010
2.87200 0.07045
2.87400 0.03721
2.87600 -0.06202
2.87800 0.06408
2.88000 0.02223
2.88200 0.01836
2.88400 0.03181
2.88600 0.00063
2.88800 0.06251
2.89000 0.04072
2.89200 -0.02884
2.89400 0.01412
2.89600 0.09958
2.89800 0.06518
2.90000 -0.03090
2.90200 0.00318
2.90400 0.07203
2.90600 -0.04492
2.90800 -0.00022
2.91000 0.14682
2.91200 0.03719
2.91400 0.02314
2.91600 0.04632
2.91800 -0.00946
2.92000 -0.07062
2.92200 -0.04366
2.92400 0.09546
2.92600 0.02226
2.92800 0.01490
2.93000 0.04097
2.93200 0.02498
2.93400 0.00271
2.93600 -0.04553
2.93800 0.06211
2.94000 0.08071
2.94200 0.03878
2.94400 0.09519
2.94600 0.05394
2.94800 -0.01137
2.95000 -0.06350
2.95200 0.09364
2.95400 -0.04047
2.95600 -0.01985
2.95800 0.03620
2.96000 0.03765
2.96200 -0.00473
2.96400 0.05499
2.96600 -0.06805
2.96800 0.15253
2.97000 -0.04830
2.97200 -0.01225
2.97400 0.02418
2.97600 0.01038
2.97800 0.01306
2.98000 -0.04998
2.98200 0.04761
2.98400 -0.04335
2.98600 0.02789
2.98800 -0.02761
2.99000 0.05086
2.99200 0.00900
2.99400 0.13198
2.99600 0.03240
2.99800 -0.03645
3.00000 0.10800
3.00200 0.02208
3.00400 -0.11142
3.00600 -0.06406
3.00800 -0.00523
3.01000 -0.10926
3.01200 -0.02595
3.01400 0.03064
3.01600 -0.11189
3.01800 0.05859
3.02000 -0.00857
3.02200 -0.05768
3.02400 0.03626
3.02600 -0.03088
3.02800 0.03026
3.03000 -0.00012
3.03200 -0.00451
3.03400 -0.02563
3.03600 0.00894
3.03800 0.00263
3.04000 -0.03924
3.04200 -0.01864
3.04400 0.05459
3.04600 -0.02358
3.04800 -0.05391
3.05000 -0.15591
3.05200 0.00465
3.05400 -0.10051
3.05600 -0.02978
3.05800 -0.00504
3.06000 -0.02442
3.06200 -0.09032
3.06400 -0.03930
3.06600 -0.02498
3.06800 -0.06554
3.07000 0.05586
3.07200 0.03110
3.07400 0.08506
3.07600 -0.00807
3.07800 -0.04934
3.08000 -0.12829
3.08200 0.05288
3.08400 0.00522
3.08600 0.00819
3.08800 -0.05896
3.09000 -0.05375
3.09200 0.08137
3.09400 -0.04733
3.09600 -0.04972
3.09800 -0.05065
3.10000 -0.02844
3.10200 0.06061
3.10400 0.04026
3.10600 0.02239
3.10800 0.02488
3.11000 0.04288
3.11200 0.01481
3.11400 0.04953
3.11600 0.11856
3.11800 -0.11111
3.12000 0.00334
3.12200 0.06461
3.12400 -0.01196
3.12600 -0.02231
3.12800 -0.00794
3.13000 -0.01724
3.13200 0.10592
3.13400 0.01539
3.13600 0.00869
3.13800 0.06864
3.14000 -0.13677
3.14200 0.03269
3.14400 0.04910
3.14600 0.02937
3.14800 0.01285
3.15000 -0.02499
3.15200 0.02810
3.15400 -0.08031
3.15600 0.09614
3.15800 -0.00086
3.16000 0.01537
3.16200 -0.02248
3.16400 -0.03779
3.16600 -0.00143
3.16800 -0.07542
3.17000 0.05834
3.17200 -0.04094
3.17400 -0.07124
3.17600 -0.07021
3.17800 0.03943
3.18000 0.04037
3.18200 0.06307
3.18400 -0.00724
3.18600 -0.12060
3.18800 -0.04368
3.19000 -0.09476
3.19200 -0.00176
3.19400 0.02417
3.19600 -0.11307
3.19800 -0.09924
3.20000 0.00235
3.20200 0.00108
3.20400 -0.00557
3.20600 0.03854
3.20800 -0.11436
3.21000 0.05705
3.21200 0.00279
3.21400 0.05145
3.21600 -0.13328
3.21800 -0.04573
3.22000 0.01882
3.22200 -0.01506
3.22400 0.04854
3.22600 0.04964
3.22800 0.05232
3.23000 0.02464
3.23200 0.00230
3.23400 -0.01172
3.23600 -0.08484
3.23800 -0.05432
3.24000 0.04752
3.24200 0.04426
3.24400 0.06911
3.24600 -0.06396
3.24800 -0.07657
3.25000 0.00679
3.25200 0.05121
3.25400 0.03044
3.25600 0.05797
3.25800 0.04759
3.26000 0.04475
3.26200 -0.00992
3.26400 0.09066
3.26600 0.02473
3.26800 -0.10402
3.27000 -0.06196
3.27200 0.00309
3.27400 0.10358
3.27600 0.02163
3.27800 -0.10936
3.28000 0.08184
3.28200 -0.00286
3.28400 -0.03360
3.28600 -0.02952
3.28800 -0.01562
3.29000 -0.05049
3.29200 -0.01016
3.29400 0.03781
3.29600 0.06180
3.29800 0.00847
3.30000 0.00212
3.30200 0.03308
3.30400 -0.08969
3.30600 -0.04413
3.30800 0.00465
3.31000 -0.01882
3.31200 -0.03683
3.31400 0.00754
3.31600 0.02760
3.31800 -0.00562
3.32000 0.01746
3.32200 0.00606
3.32400 0.06078
3.32600 -0.01279
3.32800 0.08164
3.33000 0.08498
3.33200 -0.02858
3.33400 -0.06476
3.33600 0.06376
3.33800 -0.02799
3.34000 -0.17390
3.34200 0.07609
3.34400 -0.08919
3.34600 0.01660
3.34800 0.03643
3.35000 -0.06346
3.35200 -0.02290
3.35400 0.02847
3.35600 0.00428
3.35800 -0.10691
3.36000 0.06415
3.36200 0.03626
3.36400 0.02895
3.36600 0.10420
3.36800 -0.01686
3.37000 0.01641
3.37200 -0.03260
3.37400 0.03820
3.37600 0.00674
3.37800 0.01526
3.38000 0.00061
3.38200 0.01970
3.38400 -0.03242
3.38600 0.00215
3.38800 -0.00494
3.39000 -0.07390
3.39200 -0.01417
3.39400 0.00806
3.39600 -0.04884
3.39800 0.07551
3.40000 -0.12579
3.40200 -0.09394
3.40400 0.01055
3.40600 -0.03400
3.40800 0.01485
3.41000 -0.13228
3.41200 0.01679
3.41400 0.02211
3.41600 -0.02175
3.41800 0.08801
3.42000 -0.07716
3.42200 -0.07242
3.42400 0.02870
3.42600 -0.04008
3.42800 -0.08676
3.43000 0.01356
3.43200 -0.03611
3.43400 0.07667
3.43600 -0.01103
3.43800 0.06404
3.44000 0.07473
3.44200 -0.00674
3.44400 0.15552
3.44600 0.06934
3.44800 -0.05892
3.45000 -0.15318
3.45200 0.05298
3.45400 -0.03910
3.45600 -0.03300
3.45800 0.07461
3.46000 0.00577
3.46200 0.06615
3.46400 0.11433
3.46600 0.07390
3.46800 0.22173
3.47000 0.66335
3.47200 1.21990
3.47400 1.46446
3.47600 1.16410
3.47800 0.58259
3.48000 0.21867
3.48200 0.01557
3.48400 -0.08412
3.48600 0.03985
3.48800 0.00388
3.49000 -0.03700
3.49200 -0.01221
3.49400 -0.07219
3.49600 -0.05824
3.49800 -0.03399
3.50000 0.00751
3.50200 0.02915
3.50400 0.04623
3.50600 0.08171
3.50800 0.02002
3.51000 -0.11160
3.51200 0.00752
3.51400 0.01435
3.51600 -0.04356
3.51800 0.01167
3.52000 -0.01192
3.52200 -0.00833
3.52400 -0.01153
3.52600 -0.05743
3.52800 0.01043
3.53000 0.04037
3.53200 -0.07969
3.53400 0.08739
3.53600 0.01775
3.53800 0.01482
3.54000 -0.05151
3.54200 -0.14680
3.54400 -0.06641
3.54600 0.07953
3.54800 0.00200
3.55000 0.02037
3.55200 0.08390
3.55400 0.07236
3.55600 0.11958
3.55800 -0.09188
3.56000 -0.01784
3.56200 -0.00122
3.56400 -0.02080
3.56600 -0.04668
3.56800 -0.00585
3.57000 -0.02127
3.57200 -0.09036
3.57400 0.00522
3.57600 -0.00604
3.57800 0.07551
3.58000 -0.04673
3.58200 -0.08338
3.58400 0.04119
3.58600 -0.00369
3.58800 -0.04575
3.59000 -0.03139
3.59200 0.09765
3.59400 0.00062
3.59600 0.11249
3.59800 -0.06987
3.60000 -0.04116
3.60200 -0.01985
3.60400 0.07914
3.60600 0.02208
3.60800 0.00254
3.61000 -0.04936
3.61200 0.07951
3.61400 0.01685
3.61600 -0.06976
3.61800 0.04546
3.62000 0.00298
3.62200 -0.02594
3.62400 0.07890
3.62600 0.02178
3.62800 -0.03237
3.63000 0.07644
3.63200 -0.03326
3.63400 -0.03833
3.63600 -0.01472
3.63800 -0.00706
3.64000 -0.01675
3.64200 0.09767
3.64400 0.04151
3.64600 0.07918
3.64800 -0.06208
3.65000 0.00484
3.65200 0.10607
3.65400 -0.02106
3.65600 -0.03354
3.65800 0.06767
3.66000 -0.03576
3.66200 -0.07936
3.66400 0.00128
3.66600 -0.01854
3.66800 -0.01164
3.67000 0.00269
3.67200 -0.00967
3.67400 -0.05875
3.67600 0.04960
3.67800 -0.12356
3.68000 0.06965
3.68200 -0.08921
3.68400 0.11630
3.68600 -0.09993
3.68800 -0.09282
3.69000 -0.00209
3.69200 0.07332
3.69400 -0.03426
3.69600 -0.04311
3.69800 0.02583
3.70000 0.11856
3.70200 -0.04140
3.70400 0.08837
3.70600 0.02574
3.70800 -0.04646
3.71000 0.03877
3.71200 -0.00434
3.71400 -0.08286
3.71600 -0.04771
3.71800 -0.04241
3.72000 -0.09264
3.72200 -0.02301
3.72400 -0.00808
3.72600 -0.00129
3.72800 -0.00457
3.73000 0.06628
3.73200 0.10323
3.73400 0.02530
3.73600 0.01698
3.73800 0.04032
3.74000 -0.01908
3.74200 -0.01842
3.74400 -0.03261
3.74600 -0.02007
3.74800 -0.00999
3.75000 0.03854
3.75200 -0.03449
3.75400 0.00266
3.75600 -0.05807
3.75800 0.07608
3.76000 -0.00827
3.76200 -0.04092
3.76400 -0.06239
3.76600 0.07966
3.76800 0.00695
3.77000 0.08648
3.77200 0.04800
3.77400 0.04353
3.77600 -0.02432
3.77800 -0.03830
3.78000 -0.04131
3.78200 0.09437
3.78400 -0.02417
3.78600 -0.00174
3.78800 0.11189
3.79000 -0.11343
3.79200 0.00874
3.79400 -0.01085
3.79600 0.07100
3.79800 0.06875
3.80000 -0.08359
3.80200 0.05105
3.80400 0.09302
3.80600 0.03171
3.80800 -0.00303
3.81000 -0.03125
3.81200 -0.06185
3.81400 -0.02547
3.81600 0.03040
3.81800 -0.11142
3.82000 -0.04745
3.82200 0.00379
3.82400 -0.05149
3.82600 -0.06304
3.82800 -0.03796
3.83000 -0.02596
3.83200 0.01475
3.83400 -0.07993
3.83600 -0.02015
3.83800 0.04300
3.84000 0.12661
3.84200 0.06633
3.84400 -0.02815
3.84600 0.06625
3.84800 -0.06668
3.85000 -0.00320
3.85200 -0.06340
3.85400 0.03129
3.85600 0.00312
3.85800 0.08329
3.86000 0.08456
3.86200 -0.05416
3.86400 -0.07238
3.86600 0.06526
3.86800 -0.02062
3.87000 0.02796
3.87200 -0.01014
3.87400 -0.02357
3.87600 0.10861
3.87800 -0.00331
3.88000 -0.03311
3.88200 0.12128
3.88400 0.02249
3.88600 0.03490
3.88800 -0.00859
3.89000 -0.06577
3.89200 0.04977
3.89400 -0.03762
3.89600 0.01788
3.89800 -0.02889
3.90000 0.02791
3.90200 -0.07235
3.90400 0.02225
3.90600 0.12212
3.90800 -0.03546
3.91000 0.06031
3.91200 0.01927
3.91400 -0.02246
3.91600 -0.15863
3.91800 0.04802
3.92000 -0.03864
3.92200 0.01720
3.92400 0.05907
3.92600 0.03439
3.92800 -0.06977
3.93000 -0.07729
3.93200 -0.05531
3.93400 0.10657
3.93600 -0.07637
3.93800 -0.10323
3.94000 0.02562
3.94200 0.03066
3.94400 0.02751
3.94600 -0.05760
3.94800 -0.06925
3.95000 -0.00038
3.95200 -0.03456
3.95400 0.09527
3.95600 -0.00399
3.95800 0.05545
3.96000 0.05046
3.96200 -0.07510
3.96400 0.05301
3.96600 0.07046
3.96800 0.02372
3.97000 0.08182
3.97200 -0.10639
3.97400 -0.05932
3.97600 0.06894
3.97800 0.00214
3.98000 -0.04688
3.98200 0.09401
3.98400 0.01663
3.98600 0.01521
3.98800 0.03523
3.99000 -0.05197
3.99200 0.00702
3.99400 0.08873
3.99600 0.00737
3.99800 0.05317
4.00000 0.05440
4.00200 0.03045
4.00400 0.01049
4.00600 0.03810
4.00800 -0.03857
4.01000 0.02391
4.01200 -0.03190
4.01400 0.05081
4.01600 0.03523
4.01800 -0.10507
4.02000 -0.02525
4.02200 -0.07420
4.02400 -0.03707
4.02600 0.14778
4.02800 -0.04163
4.03000 0.08168
4.03200 0.03497
4.03400 0.02196
4.03600 -0.02306
4.03800 0.04759
4.04000 -0.03126
4.04200 0.04444
4.04400 -0.01196
4.04600 0.01877
4.04800 -0.02749
4.05000 0.03818
4.05200 0.01888
4.05400 0.01337
4.05600 -0.10074
4.05800 -0.09323
4.06000 0.06282
4.06200 -0.06216
4.06400 0.03953
4.06600 -0.09286
4.06800 -0.11950
4.07000 -0.04358
4.07200 -0.04566
4.07400 0.09378
4.07600 0.03949
4.07800 -0.14003
4.08000 0.05319
4.08200 -0.03344
4.08400 0.09807
4.08600 -0.09450
4.08800 0.02502
4.09000 -0.04968
4.09200 0.01521
4.09400 -0.05473
4.09600 -0.09655
4.09800 0.02319
4.10000 0.27117
4.10200 0.80322
4.10400 1.33012
4.10600 1.48304
4.10800 0.95826
4.11000 0.50458
4.11200 0.09908
4.11400 0.04591
4.11600 -0.02551
4.11800 0.00303
4.12000 0.09147
4.12200 -0.00357
4.12400 -0.05283
4.12600 0.05675
4.12800 -0.06295
4.13000 0.00729
4.13200 -0.02325
4.13400 0.00274
4.13600 0.10919
4.13800 0.00667
4.14000 -0.04538
4.14200 0.08346
4.14400 -0.02012
4.14600 0.00951
4.14800 -0.07471
4.15000 0.07781
4.15200 0.08988
4.15400 -0.06215
4.15600 0.06132
4.15800 0.12258
4.16000 0.08589
4.16200 -0.06809
4.16400 0.06897
4.16600 0.01318
4.16800 -0.03287
4.17000 0.07310
4.17200 -0.15963
4.17400 -0.01387
4.17600 0.02056
4.17800 -0.00017
4.18000 -0.08011
4.18200 0.02630
4.18400 -0.01409
4.18600 -0.09412
4.18800 0.03879
4.19000 0.02819
4.19200 -0.02116
4.19400 0.11015
4.19600 0.04398
4.19800 -0.01909
4.20000 -0.02078
4.20200 0.05116
4.20400 -0.14768
4.20600 -0.03465
4.20800 -0.05842
4.21000 -0.01691
4.21200 0.11682
4.21400 0.03843
4.21600 0.16328
4.21800 -0.08823
4.22000 -0.01773
4.22200 -0.01888
4.22400 -0.00361
4.22600 0.00898
4.22800 0.07346
4.23000 -0.02354
4.23200 -0.00157
4.23400 0.00721
4.23600 -0.08848
4.23800 -0.01707
4.24000 0.03873
4.24200 -0.16088
4.24400 0.00923
4.24600 -0.01695
4.24800 0.06778
4.25000 0.02582
4.25200 0.00950
4.25400 0.03049
4.25600 -0.07176
4.25800 -0.04673
4.26000 0.02113
4.26200 -0.00160
4.26400 -0.00600
4.26600 0.03702
4.26800 -0.00036
4.27000 0.02802
4.27200 0.01777
4.27400 -0.02139
4.27600 -0.09707
4.27800 0.09397
4.28000 -0.01141
4.28200 -0.04350
4.28400 0.00374
4.28600 -0.06460
4.28800 -0.08390
4.29000 0.03506
4.29200 0.05371
4.29400 -0.06013
4.29600 -0.06507
4.29800 -0.03230
4.30000 0.07776
4.30200 0.00187
4.30400 0.02077
4.30600 0.00195
4.30800 -0.02500
4.31000 0.03300
4.31200 0.06511
4.31400 0.05051
4.31600 -0.07686
4.31800 0.09539
4.32000 0.08293
4.32200 0.01771
4.32400 -0.14507
4.32600 0.05114
4.32800 0.16041
4.33000 0.05902
4.33200 0.08457
4.33400 -0.05292
4.33600 0.02301
4.33800 -0.04905
4.34000 0.01805
4.34200 0.04298
4.34400 0.06788
4.34600 -0.07905
4.34800 0.04119
4.35000 0.00131
4.35200 -0.04860
4.35400 0.01310
4.35600 -0.07379
4.35800 -0.03473
4.36000 -0.00898
4.36200 -0.04983
4.36400 -0.08074
4.36600 0.02487
4.36800 0.09676
4.37000 -0.03021
4.37200 0.01331
4.37400 -0.02566
4.37600 0.04301
4.37800 0.03228
4.38000 -0.10864
4.38200 -0.06743
4.38400 -0.02190
4.38600 -0.02681
4.38800 -0.00176
4.39000 0.04964
4.39200 -0.06757
4.39400 0.01550
4.39600 -0.00195
4.39800 0.04626
4.40000 0.07872
4.40200 -0.01712
4.40400 0.08919
4.40600 0.03489
4.40800 0.05735
4.41000 0.04767
4.41200 0.03407
4.41400 -0.03217
4.41600 -0.03377
4.41800 0.00983
4.42000 0.12313
4.42200 -0.01298
4.42400 0.01316
4.42600 0.03238
4.42800 0.06424
4.43000 -0.16120
4.43200 0.05327
4.43400 -0.03307
4.43600 0.00386
4.43800 0.02106
4.44000 -0.05925
4.44200 0.00743
4.44400 0.00686
4.44600 0.05441
4.44800 -0.09477
4.45000 -0.08896
4.45200 0.08003
4.45400 -0.01156
4.45600 -0.04806
4.45800 -0.03779
4.46000 -0.01009
4.46200 0.00500
4.46400 -0.03543
4.46600 -0.04732
4.46800 0.03301
4.47000 -0.02685
4.47200 -0.04765
4.47400 -0.08365
4.47600 -0.00083
4.47800 0.06933
4.48000 -0.09689
4.48200 0.02570
4.48400 -0.00022
4.48600 -0.02066
4.48800 -0.05293
4.49000 0.07640
4.49200 -0.04187
4.49400 0.00664
4.49600 -0.06875
4.49800 0.11192
4.50000 0.09154
4.50200 -0.03156
4.50400 0.01137
4.50600 -0.02273
4.50800 0.01128
4.51000 0.04351
4.51200 0.02565
4.51400 -0.00171
4.51600 0.05409
4.51800 0.08857
4.52000 -0.06489
4.52200 -0.00680
4.52400 0.06497
4.52600 0.07041
4.52800 -0.04769
4.53000 -0.02409
4.53200 -0.05780
4.53400 0.10282
4.53600 -0.00817
4.53800 0.00677
4.54000 0.03560
4.54200 -0.06017
4.54400 0.13074
4.54600 0.10159
4.54800 -0.02338
4.55000 -0.06528
4.55200 0.01270
4.55400 0.04619
4.55600 -0.01388
4.55800 -0.01236
4.56000 -0.01869
4.56200 0.05567
4.56400 0.03100
4.56600 -0.07176
4.56800 -0.02145
4.57000 -0.01229
4.57200 -0.02520
4.57400 0.12357
4.57600 0.08142
4.57800 -0.02426
4.58000 0.00048
4.58200 0.00385
4.58400 -0.06929
4.58600 0.02238
4.58800 -0.00573
4.59000 -0.06555
4.59200 -0.13427
4.59400 0.01015
4.59600 0.01861
4.59800 -0.14356
4.60000 0.01392
4.60200 -0.03226
4.60400 -0.06988
4.60600 0.03153
4.60800 0.03414
4.61000 0.08367
4.61200 -0.01192
4.61400 0.02842
4.61600 0.00577
4.61800 0.01741
4.62000 0.06861
4.62200 0.06580
4.62400 0.14004
4.62600 0.08561
4.62800 0.00167
4.63000 -0.09102
4.63200 0.16749
4.63400 -0.03077
4.63600 -0.00991
4.63800 0.06057
4.64000 0.01305
4.64200 -0.02366
4.64400 -0.00476
4.64600 0.00377
4.64800 -0.12900
4.65000 -0.03552
4.65200 0.02275
4.65400 0.10823
4.65600 0.06914
4.65800 -0.05393
4.66000 -0.05637
4.66200 -0.03440
4.66400 -0.06427
4.66600 0.05771
4.66800 0.04279
4.67000 0.07135
4.67200 -0.01218
4.67400 0.11042
4.67600 0.01063
4.67800 0.05341
4.68000 -0.13574
4.68200 -0.05956
4.68400 -0.01404
4.68600 -0.02537
4.68800 0.02444
4.69000 -0.03336
4.69200 0.09126
4.69400 -0.01041
4.69600 0.00444
4.69800 -0.05359
4.70000 -0.07786
4.70200 -0.08176
4.70400 -0.03847
4.70600 -0.03344
4.70800 0.01461
4.71000 -0.07348
4.71200 -0.13531
4.71400 0.04200
4.71600 0.07594
4.71800 0.05683
4.72000 0.01183
4.72200 0.06727
4.72400 -0.03201
4.72600 -0.02928
4.72800 -0.01941
4.73000 0.14260
4.73200 0.34766
4.73400 0.91822
4.73600 1.49208
4.73800 1.31897
4.74000 0.88765
4.74200 0.48156
4.74400 0.12512
4.74600 -0.03277
4.74800 -0.06604
4.75000 -0.00904
4.75200 0.05315
4.75400 0.07766
4.75600 -0.01101
4.75800 0.01909
4.76000 -0.04427
4.76200 0.02213
4.76400 -0.00484
4.76600 -0.09652
4.76800 -0.01881
4.77000 -0.08266
4.77200 0.13086
4.77400 0.04838
4.77600 -0.01520
4.77800 0.03894
4.78000 -0.10760
4.78200 -0.07622
4.78400 0.05803
4.78600 0.09347
4.78800 0.05498
4.79000 -0.13283
4.79200 0.04023
4.79400 -0.07716
4.79600 0.05633
4.79800 -0.05284
4.80000 0.07131
4.80200 -0.00403
4.80400 -0.02620
4.80600 -0.07096
4.80800 0.05026
4.81000 0.07212
4.81200 0.17562
4.81400 -0.02310
4.81600 -0.12826
4.81800 -0.09109
4.82000 0.00243
4.82200 -0.08646
4.82400 0.03841
4.82600 0.01151
4.82800 0.00773
4.83000 0.02183
4.83200 0.02767
4.83400 -0.00979
4.83600 0.01597
4.83800 -0.05627
4.84000 0.00807
4.84200 0.05404
4.84400 0.07719
4.84600 -0.00106
4.84800 -0.06583
4.85000 0.08555
4.85200 -0.04199
4.85400 -0.03343
4.85600 0.02712
4.85800 -0.07033
4.86000 0.02803
4.86200 -0.04528
4.86400 0.02720
4.86600 0.01441
4.86800 -0.15919
4.87000 -0.00430
4.87200 0.04462
4.87400 -0.05594
4.87600 0.01795
4.87800 -0.03808
4.88000 0.00419
4.88200 0.03922
4.88400 -0.01730
4.88600 0.07312
4.88800 0.03276
4.89000 -0.05914
4.89200 -0.03969
4.89400 0.07715
4.89600 0.03616
4.89800 -0.03759
4.90000 0.00332
4.90200 -0.11931
4.90400 0.02585
4.90600 -0.01796
4.90800 0.16706
4.91000 -0.05375
4.91200 -0.03596
4.91400 0.09182
4.91600 0.11761
4.91800 -0.00185
4.92000 -0.04495
4.92200 -0.05899
4.92400 -0.12068
4.92600 -0.03620
4.92800 -0.01340
4.93000 0.03371
4.93200 -0.00236
4.93400 -0.08410
4.93600 -0.01676
4.93800 -0.03983
4.94000 0.01527
4.94200 -0.03669
4.94400 -0.06245
4.94600 0.00367
4.94800 -0.06106
4.95000 0.03218
4.95200 0.05349
4.95400 -0.10520
4.95600 -0.00165
4.95800 -0.01435
4.96000 -0.05919
4.96200 -0.04982
4.96400 -0.01129
4.96600 0.02852
4.96800 -0.03380
4.97000 0.05645
4.97200 -0.02851
4.97400 -0.04588
4.97600 -0.02419
4.97800 -0.09092
4.98000 -0.01927
4.98200 -0.02004
4.98400 0.00855
4.98600 -0.15570
4.98800 0.11761
4.99000 -0.04796
4.99200 0.01505
4.99400 0.10402
4.99600 0.01522
4.99800 -0.01168
5.00000 -0.04047
5.00200 -0.12784
5.00400 -0.05420
5.00600 0.01373
5.00800 -0.01864
5.01000 -0.02916
5.01200 0.04989
5.01400 -0.11949
5.01600 -0.00905
5.01800 -0.02540
5.02000 0.02113
5.02200 -0.03623
5.02400 -0.05660
5.02600 0.02951
5.02800 -0.01618
5.03000 -0.02768
5.03200 0.07835
5.03400 -0.05108
5.03600 0.03756
5.03800 0.03656
5.04000 0.03192
5.04200 -0.07933
5.04400 0.00933
5.04600 0.06166
5.04800 0.07137
5.05000 0.08358
5.05200 0.01656
5.05400 -0.10400
5.05600 0.00446
5.05800 -0.07889
5.06000 0.03390
5.06200 -0.02960
5.06400 0.03891
5.06600 0.00223
5.06800 0.05358
5.07000 -0.01512
5.07200 0.06268
5.07400 0.16290
5.07600 0.03440
5.07800 0.04799
5.08000 -0.05110
5.08200 0.03605
5.08400 -0.07573
5.08600 -0.00868
5.08800 0.03046
5.09000 0.01066
5.09200 -0.00207
5.09400 0.02240
5.09600 -0.02402
5.09800 -0.01171
5.10000 0.02139
5.10200 -0.07205
5.10400 -0.12040
5.10600 0.01257
5.10800 -0.03508
5.11000 -0.06108
5.11200 -0.01828
5.11400 -0.07179
5.11600 0.09870
5.11800 0.07005
5.12000 -0.01921
5.12200 0.00814
5.12400 0.01601
5.12600 -0.02681
5.12800 -0.00955
5.13000 0.01741
5.13200 -0.06428
5.13400 -0.07587
5.13600 0.06373
5.13800 -0.02351
5.14000 0.09950
5.14200 -0.01663
5.14400 -0.04357
5.14600 0.06177
5.14800 0.08656
5.15000 -0.06852
5.15200 0.00025
5.15400 -0.01463
5.15600 -0.04773
5.15800 0.06433
5.16000 -0.10864
5.16200 -0.06253
5.16400 -0.02949
5.16600 -0.01291
5.16800 -0.10506
5.17000 0.06350
5.17200 -0.04590
5.17400 0.02846
5.17600 0.00632
5.17800 0.00593
5.18000 -0.05972
5.18200 0.08866
5.18400 0.07656
5.18600 0.01238
5.18800 -0.02051
5.19000 0.01107
5.19200 -0.00973
5.19400 -0.02001
5.19600 0.07209
5.19800 -0.01646
5.20000 -0.01212
5.20200 0.10331
5.20400 -0.00760
5.20600 0.01475
5.20800 0.02051
5.21000 -0.09984
5.21200 0.04360
5.21400 -0.08068
5.21600 0.01980
5.21800 0.01386
5.22000 0.04718
5.22200 0.09408
5.22400 0.12118
5.22600 0.07115
5.22800 0.06103
5.23000 -0.01200
5.23200 0.06528
5.23400 0.03807
5.23600 -0.02407
5.23800 -0.02436
5.24000 0.07795
5.24200 -0.05662
5.24400 0.15759
5.24600 0.10091
5.24800 -0.04267
5.25000 -0.04582
5.25200 0.00848
5.25400 -0.02870
5.25600 0.04849
5.25800 -0.03803
5.26000 0.01471
5.26200 0.03228
5.26400 0.05561
5.26600 -0.02743
5.26800 -0.00372
5.27000 0.00788
5.27200 -0.00022
5.27400 -0.18131
5.27600 -0.02325
5.27800 0.00917
5.28000 -0.15476
5.28200 0.05262
5.28400 0.04720
5.28600 0.01818
5.28800 -0.09989
5.29000 -0.01620
5.29200 -0.09364
5.29400 0.07548
5.29600 -0.07479
5.29800 0.05039
5.30000 0.04090
5.30200 0.01387
5.30400 0.01345
5.30600 0.08089
5.30800 0.06094
5.31000 -0.06685
5.31200 0.07014
5.31400 0.00128
5.31600 -0.07478
5.31800 -0.04537
5.32000 -0.07323
5.32200 -0.00642
5.32400 -0.00664
5.32600 0.02342
5.32800 0.02108
5.33000 -0.13325
5.33200 -0.03598
5.33400 -0.12662
5.33600 0.01459
5.33800 -0.00419
5.34000 0.04506
5.34200 0.00215
5.34400 0.11002
5.34600 -0.03565
5.34800 0.01205
5.35000 -0.07381
5.35200 0.04839
5.35400 0.15867
5.35600 -0.05011
5.35800 -0.06373
5.36000 0.00177
5.36200 0.10763
5.36400 0.54317
5.36600 1.12474
5.36800 1.51307
5.37000 1.32057
5.37200 0.66682
5.37400 0.36427
5.37600 0.04697
5.37800 0.01595
5.38000 0.02012
5.38200 0.07635
5.38400 -0.05472
5.38600 -0.11109
5.38800 0.12130
5.39000 0.01990
5.39200 -0.01863
5.39400 -0.04139
5.39600 -0.12319
5.39800 -0.04614
5.40000 -0.01135
5.40200 -0.01089
5.40400 0.00195
5.40600 0.04119
5.40800 -0.05009
5.41000 0.07558
5.41200 0.01377
5.41400 0.01942
5.41600 0.09297
5.41800 0.00764
5.42000 -0.00129
5.42200 -0.01084
5.42400 -0.07582
5.42600 0.15778
5.42800 -0.03304
5.43000 0.03070
5.43200 0.04533
5.43400 -0.14427
5.43600 -0.02145
5.43800 0.10213
5.44000 0.13255
5.44200 -0.01080
5.44400 0.01055
5.44600 0.01940
5.44800 -0.18365
5.45000 0.09955
5.45200 -0.02771
5.45400 -0.00767
5.45600 -0.12983
5.45800 -0.08770
5.46000 -0.01951
5.46200 -0.02534
5.46400 -0.00993
5.46600 0.01346
5.46800 0.04424
5.47000 0.02021
5.47200 0.02630
5.47400 0.07404
5.47600 -0.01095
5.47800 -0.01868
5.48000 -0.01052
5.48200 0.04499
5.48400 -0.01336
5.48600 0.11197
5.48800 -0.11464
5.49000 -0.02111
5.49200 0.05523
5.49400 0.08270
5.49600 0.03899
5.49800 -0.02502
5.50000 -0.00193
5.50200 0.02496
5.50400 0.01997
5.50600 0.07690
5.50800 -0.09990
5.51000 0.09418
5.51200 -0.12426
5.51400 0.01710
5.51600 0.02580
5.51800 -0.03710
5.52000 -0.12418
5.52200 -0.05276
5.52400 0.02102
5.52600 0.06922
5.52800 0.05890
5.53000 -0.08105
5.53200 0.07892
5.53400 0.06268
5.53600 0.02738
5.53800 -0.05339
5.54000 -0.10475
5.54200 -0.01526
5.54400 -0.08061
5.54600 0.11536
5.54800 -0.03344
5.55000 0.04122
5.55200 -0.12318
5.55400 -0.08414
5.55600 0.09387
5.55800 0.03193
5.56000 0.02357
5.56200 -0.04802
5.56400 -0.00790
5.56600 0.05838
5.56800 -0.00476
5.57000 0.00045
5.57200 0.08010
5.57400 -0.01618
5.57600 0.00152
5.57800 0.01305
5.58000 -0.02720
5.58200 0.08562
5.58400 0.01430
5.58600 0.01909
5.58800 0.01405
5.59000 0.03103
5.59200 -0.01767
5.59400 0.04065
5.59600 -0.02290
5.59800 -0.02213
5.60000 0.07334
5.60200 0.01887
5.60400 -0.03873
5.60600 -0.04540
5.60800 0.05188
5.61000 -0.07923
5.61200 0.07223
5.61400 0.03384
5.61600 0.02347
5.61800 0.01011
5.62000 -0.03617
5.62200 -0.02022
5.62400 -0.03829
5.62600 0.05333
5.62800 0.07339
5.63000 -0.00544
5.63200 0.03424
5.63400 -0.03579
5.63600 -0.01676
5.63800 -0.04789
5.64000 0.03961
5.64200 0.08833
5.64400 0.04458
5.64600 -0.06790
5.64800 0.02412
5.65000 -0.00175
5.65200 -0.00041
5.65400 -0.01309
5.65600 -0.01616
5.65800 0.00934
5.66000 0.06475
5.66200 0.00910
5.66400 0.02394
5.66600 0.08496
5.66800 -0.05319
5.67000 -0.05848
5.67200 0.02542
5.67400 -0.00352
5.67600 0.05980
5.67800 0.10761
5.68000 -0.01363
5.68200 -0.08804
5.68400 0.02779
5.68600 0.08744
5.68800 0.01763
5.69000 0.01587
5.69200 -0.08338
5.69400 0.07575
5.69600 -0.16410
5.69800 -0.01944
5.70000 0.06574
5.70200 0.04157
5.70400 -0.13625
5.70600 0.08790
5.70800 -0.02001
5.71000 -0.04715
5.71200 -0.05291
5.71400 -0.02240
5.71600 -0.01586
5.71800 -0.09810
5.72000 0.03329
5.72200 0.04592
5.72400 -0.07697
5.72600 -0.07770
5.72800 -0.03723
5.73000 0.07455
5.73200 -0.02171
5.73400 -0.06258
5.73600 -0.01484
5.73800 0.13145
5.74000 0.01543
5.74200 -0.04843
5.74400 0.00834
5.74600 0.00822
5.74800 -0.02072
5.75000 0.06096
5.75200 0.03729
5.75400 0.04642
5.75600 -0.09875
5.75800 0.15092
5.76000 -0.06245
5.76200 -0.05455
5.76400 0.01962
5.76600 -0.04550
5.76800 -0.05121
5.77000 0.01005
5.77200 0.03501
5.77400 0.09073
5.77600 -0.00699
5.77800 -0.11593
5.78000 -0.05326
5.78200 -0.04448
5.78400 0.05683
5.78600 0.02516
5.78800 -0.15643
5.79000 -0.07909
5.79200 -0.00046
5.79400 -0.06204
5.79600 -0.01371
5.79800 -0.01142
5.80000 -0.00255
5.80200 -0.02682
5.80400 0.06308
5.80600 -0.08758
5.80800 0.18600
5.81000 -0.01381
5.81200 -0.05195
5.81400 0.04939
5.81600 -0.04432
5.81800 -0.02692
5.82000 -0.06044
5.82200 -0.02856
5.82400 0.06608
5.82600 -0.05379
5.82800 0.00221
5.83000 -0.00605
5.83200 -0.06551
5.83400 -0.10197
5.83600 -0.03509
5.83800 0.00614
5.84000 0.02001
5.84200 -0.10550
5.84400 -0.03780
5.84600 -0.05315
5.84800 0.03644
5.85000 -0.01420
5.85200 -0.03429
5.85400 -0.02933
5.85600 0.06628
5.85800 0.03118
5.86000 -0.03032
5.86200 -0.01986
5.86400 -0.05937
5.86600 0.04021
5.86800 0.08719
5.87000 -0.06625
5.87200 -0.01026
5.87400 0.00852
5.87600 0.04507
5.87800 0.01366
5.88000 -0.01133
5.88200 0.01703
5.88400 -0.08554
5.88600 0.04688
5.88800 0.07522
5.89000 0.01846
5.89200 0.02018
5.89400 -0.07578
5.89600 -0.04801
5.89800 0.11553
5.90000 -0.06072
5.90200 0.09047
5.90400 0.01205
5.90600 0.01080
5.90800 0.06795
5.91000 -0.05007
5.91200 -0.04616
5.91400 -0.03336
5.91600 0.05150
5.91800 -0.04469
5.92000 0.04567
5.92200 0.01295
5.92400 -0.01914
5.92600 -0.01704
5.92800 -0.03116
5.93000 0.01588
5.93200 0.00980
5.93400 0.02875
5.93600 0.04565
5.93800 0.00016
5.94000 0.07004
5.94200 -0.04448
5.94400 -0.06964
5.94600 -0.01563
5.94800 0.00535
5.95000 0.01765
5.95200 -0.06540
5.95400 0.01496
5.95600 -0.00312
5.95800 -0.12990
5.96000 0.04301
5.96200 0.02596
5.96400 0.02495
5.96600 -0.08241
5.96800 -0.00484
5.97000 0.11658
5.97200 0.00910
5.97400 -0.04727
5.97600 -0.03132
5.97800 0.06036
5.98000 -0.00825
5.98200 0.02265
5.98400 -0.09688
5.98600 0.05635
5.98800 0.07849
5.99000 0.08816
5.99200 0.06391
5.99400 0.24732
5.99600 0.52950
5.99800 1.16760
6.00000 1.47784
6.00200 1.22665
6.00400 0.68930
6.00600 0.31179
6.00800 0.01712
6.01000 0.02948
6.01200 0.04308
6.01400 -0.02183
6.01600 0.01615
6.01800 -0.06311
6.02000 -0.01485
6.02200 0.06978
6.02400 -0.01103
6.02600 0.04062
6.02800 -0.10664
6.03000 0.01816
6.03200 -0.05700
6.03400 0.05004
6.03600 0.05101
6.03800 0.03295
6.04000 -0.06127
6.04200 -0.02927
6.04400 -0.01474
6.04600 0.06012
6.04800 0.01012
6.05000 -0.05544
6.05200 0.00315
6.05400 0.01813
6.05600 0.03101
6.05800 -0.08382
6.06000 -0.06185
6.06200 0.15413
6.06400 -0.16765
6.06600 0.07465
6.06800 0.09742
6.07000 -0.05843
6.07200 -0.09622
6.07400 0.09733
6.07600 -0.00452
6.07800 -0.04534
6.08000 0.03975
6.08200 -0.00438
6.08400 -0.06466
6.08600 -0.04563
6.08800 -0.01411
6.09000 -0.01834
6.09200 0.07388
6.09400 0.12732
6.09600 -0.07756
6.09800 -0.00960
6.10000 0.11194
6.10200 -0.09016
6.10400 0.04838
6.10600 -0.01215
6.10800 0.05638
6.11000 0.12364
6.11200 -0.01696
6.11400 -0.07135
6.11600 0.04158
6.11800 0.03964
6.12000 -0.01550
6.12200 0.02977
6.12400 0.01522
6.12600 0.05209
6.12800 0.04548
6.13000 -0.03707
6.13200 -0.02612
6.13400 -0.07546
6.13600 -0.04059
6.13800 -0.08570
6.14000 -0.00014
6.14200 -0.03051
6.14400 -0.03110
6.14600 -0.05017
6.14800 -0.07764
6.15000 0.01380
6.15200 0.07026
6.15400 0.01466
6.15600 -0.01972
6.15800 -0.01660
6.16000 -0.03796
6.16200 0.00892
6.16400 0.01753
6.16600 0.04771
6.16800 0.08494
6.17000 -0.03858
6.17200 -0.01449
6.17400 0.04505
6.17600 -0.06330
6.17800 0.03591
6.18000 0.02977
6.18200 -0.00061
6.18400 -0.05079
6.18600 0.01699
6.18800 0.02027
6.19000 -0.03906
6.19200 -0.01655
6.19400 -0.01647
6.19600 0.05141
6.19800 -0.00396
6.20000 -0.01509
6.20200 0.09831
6.20400 0.06206
6.20600 -0.06225
6.20800 -0.00100
6.21000 0.06472
6.21200 0.12478
6.21400 0.03276
6.21600 -0.00292
6.21800 0.02951
6.22000 0.05947
6.22200 -0.04430
6.22400 -0.08398
6.22600 0.05689
6.22800 0.01679
6.23000 0.04236
6.23200 0.12160
6.23400 -0.02471
6.23600 -0.06400
6.23800 0.04375
6.24000 -0.13347
6.24200 -0.03273
6.24400 -0.01789
6.24600 0.07329
6.24800 0.00164
6.25000 -0.03365
6.25200 -0.09147
6.25400 0.02637
6.25600 -0.04435
6.25800 -0.04648
6.26000 0.04102
6.26200 -0.08758
6.26400 0.09282
6.26600 0.03008
6.26800 -0.01708
6.27000 0.03828
6.27200 -0.04618
6.27400 -0.10067
6.27600 0.05993
6.27800 -0.08159
6.28000 -0.03689
6.28200 -0.02994
6.28400 -0.00937
6.28600 -0.04751
6.28800 -0.01244
6.29000 0.06387
6.29200 -0.04324
6.29400 -0.04824
6.29600 -0.03788
6.29800 -0.04494
6.30000 0.03120
6.30200 -0.01927
6.30400 -0.01593
6.30600 0.02524
6.30800 0.06452
6.31000 0.02322
6.31200 -0.01896
6.31400 -0.03564
6.31600 -0.07654
6.31800 0.00248
6.32000 0.03924
6.32200 -0.03540
6.32400 -0.11381
6.32600 0.00219
6.32800 -0.01955
6.33000 -0.02630
6.33200 0.01633
6.33400 0.01791
6.33600 -0.05611
6.33800 -0.04526
6.34000 -0.08069
6.34200 -0.08589
6.34400 -0.03362
6.34600 0.02122
6.34800 0.06175
6.35000 0.11411
6.35200 -0.02183
6.35400 0.04414
6.35600 -0.05825
6.35800 -0.00476
6.36000 -0.01273
6.36200 0.04890
6.36400 0.06843
6.36600 -0.01687
6.36800 -0.06210
6.37000 0.04316
6.37200 0.08703
6.37400 0.01766
6.37600 -0.03232
6.37800 -0.00686
6.38000 0.05434
6.38200 -0.11168
6.38400 -0.01266
6.38600 -0.09066
6.38800 0.14096
6.39000 0.01969
6.39200 -0.00319
6.39400 0.06389
6.39600 0.04063
6.39800 -0.02268
6.40000 0.01578
6.40200 -0.03315
6.40400 0.12102
6.40600 -0.11081
6.40800 -0.07204
6.41000 0.01414
6.41200 -0.04154
6.41400 0.04344
6.41600 -0.12714
6.41800 -0.00040
6.42000 0.05323
6.42200 -0.06423
6.42400 0.01848
6.42600 -0.05347
6.42800 -0.03161
6.43000 0.03005
6.43200 0.06004
6.43400 0.00720
6.43600 0.00196
6.43800 -0.00322
6.44000 0.05263
6.44200 0.04496
6.44400 -0.04393
6.44600 0.03630
6.44800 -0.00279
6.45000 -0.02082
6.45200 -0.05165
6.45400 -0.04145
6.45600 0.02317
6.45800 0.05475
6.46000 0.03936
6.46200 0.04219
6.46400 -0.02158
6.46600 0.02759
6.46800 0.01734
6.47000 0.05857
6.47200 0.06256
6.47400 0.08026
6.47600 0.04457
6.47800 -0.02945
6.48000 0.05029
6.48200 -0.03023
6.48400 -0.00689
6.48600 0.05160
6.48800 -0.04544
6.49000 0.00033
6.49200 -0.08304
6.49400 0.04570
6.49600 -0.01281
6.49800 -0.02937
6.50000 0.08333
6.50200 -0.03192
6.50400 0.08554
6.50600 0.09186
6.50800 0.09795
6.51000 -0.02086
6.51200 -0.04967
6.51400 -0.04636
6.51600 0.07904
6.51800 0.11066
6.52000 0.15131
6.52200 0.00536
6.52400 0.04124
6.52600 -0.01827
6.52800 0.00568
6.53000 -0.03867
6.53200 -0.08403
6.53400 -0.03658
6.53600 0.06932
6.53800 -0.07246
6.54000 0.01639
6.54200 0.05991
6.54400 0.00888
6.54600 -0.02577
6.54800 0.00202
6.55000 -0.00031
6.55200 0.03465
6.55400 -0.03543
6.55600 -0.01184
6.55800 0.02711
6.56000 -0.00223
6.56200 0.01114
6.56400 0.06303
6.56600 -0.02761
6.56800 -0.03702
6.57000 -0.02620
6.57200 0.07589
6.57400 0.08509
6.57600 0.02734
6.57800 0.08855
6.58000 -0.03777
6.58200 0.03095
6.58400 0.00454
6.58600 0.01362
6.58800 0.12358
6.59000 -0.03540
6.59200 -0.00957
6.59400 0.08193
6.59600 -0.04802
6.59800 -0.00172
6.60000 -0.09976
6.60200 0.01156
6.60400 -0.13858
6.60600 -0.05889
6.60800 0.04903
6.61000 0.00393
6.61200 -0.00444
6.61400 -0.04155
6.61600 -0.08015
6.61800 -0.06401
6.62000 0.02408
6.62200 -0.01721
6.62400 0.06496
6.62600 0.29363
6.62800 0.77718
6.63000 1.23593
6.63200 1.42330
6.63400 1.03014
6.63600 0.52598
6.63800 0.26565
6.64000 -0.01065
6.64200 0.01452
6.64400 0.03940
6.64600 0.05229
6.64800 0.05446
6.65000 -0.04455
6.65200 -0.11325
6.65400 -0.00634
6.65600 0.09597
6.65800 -0.01999
6.66000 0.04297
6.66200 -0.04292
6.66400 0.03136
6.66600 -0.01330
6.66800 -0.00454
6.67000 -0.06431
6.67200 -0.03007
6.67400 -0.11298
6.67600 0.08769
6.67800 -0.06963
6.68000 0.05795
6.68200 -0.01140
6.68400 0.01043
6.68600 0.04570
6.68800 -0.05308
6.69000 -0.01016
6.69200 -0.02095
6.69400 -0.02981
6.69600 -0.03198
6.69800 0.16078
6.70000 0.04863
6.70200 0.03376
6.70400 0.11169
6.70600 -0.06315
6.70800 0.05585
6.71000 0.06480
6.71200 -0.04928
6.71400 0.06507
6.71600 0.12582
6.71800 -0.02058
6.72000 -0.14387
6.72200 0.02877
6.72400 0.05794
6.72600 -0.07897
6.72800 0.01414
6.73000 0.02335
6.73200 -0.03880
6.73400 -0.00853
6.73600 -0.05844
6.73800 0.05867
6.74000 0.04424
6.74200 -0.02887
6.74400 -0.03411
6.74600 0.05097
6.74800 -0.11946
6.75000 0.05192
6.75200 0.04790
6.75400 0.00172
6.75600 -0.10901
6.75800 -0.03902
6.76000 0.04397
6.76200 -0.06328
6.76400 -0.09559
6.76600 -0.01052
6.76800 0.03833
6.77000 0.00644
6.77200 -0.09277
6.77400 0.03488
6.77600 0.13752
6.77800 -0.04706
6.78000 -0.01777
6.78200 -0.04550
6.78400 -0.05979
6.78600 -0.05752
6.78800 0.00113
6.79000 0.00574
6.79200 0.03764
6.79400 -0.03688
6.79600 0.03301
6.79800 -0.02410
6.80000 0.10254
6.80200 -0.16294
6.80400 -0.02939
6.80600 -0.08923
6.80800 0.14083
6.81000 0.02017
6.81200 0.03068
6.81400 -0.03912
6.81600 0.04883
6.81800 -0.06053
6.82000 0.05726
6.82200 -0.05387
6.82400 0.12969
6.82600 0.01040
6.82800 -0.08698
6.83000 0.01647
6.83200 -0.03195
6.83400 -0.06373
6.83600 0.02045
6.83800 -0.00184
6.84000 -0.05479
6.84200 -0.05607
6.84400 -0.03800
6.84600 0.02278
6.84800 0.07935
6.85000 -0.12209
6.85200 0.00652
6.85400 -0.09357
6.85600 0.01642
6.85800 0.06075
6.86000 -0.14436
6.86200 0.05837
6.86400 0.01546
6.86600 0.02233
6.86800 0.01239
6.87000 0.00048
6.87200 0.02876
6.87400 0.16495
6.87600 -0.02776
6.87800 0.01885
6.88000 -0.00056
6.88200 0.09654
6.88400 0.02807
6.88600 0.04514
6.88800 0.01368
6.89000 -0.06876
6.89200 -0.07753
6.89400 0.01658
6.89600 -0.03234
6.89800 -0.01183
6.90000 0.07720
6.90200 0.01513
6.90400 -0.00538
6.90600 0.09904
6.90800 0.03480
6.91000 0.01430
6.91200 0.01315
6.91400 0.07256
6.91600 0.01396
6.91800 0.07102
6.92000 -0.06027
6.92200 -0.03043
6.92400 0.01038
6.92600 -0.01892
6.92800 -0.01282
6.93000 -0.01326
6.93200 -0.11698
6.93400 0.04250
6.93600 0.03044
6.93800 0.00373
6.94000 -0.04510
6.94200 -0.10186
6.94400 0.04346
6.94600 -0.00346
6.94800 -0.11147
6.95000 -0.09523
6.95200 0.01104
6.95400 0.00345
6.95600 0.09217
6.95800 -0.04271
6.96000 0.02291
6.96200 0.02794
6.96400 0.05974
6.96600 -0.09284
6.96800 0.04281
6.97000 -0.02531
6.97200 0.02006
6.97400 -0.04214
6.97600 0.04343
6.97800 0.05348
6.98000 -0.03230
6.98200 -0.07676
6.98400 0.03260
6.98600 -0.02073
6.98800 0.01946
6.99000 0.10187
6.99200 -0.02041
6.99400 0.07126
6.99600 0.12328
6.99800 -0.00105
7.00000 -0.01642
7.00200 -0.01904
7.00400 0.03144
7.00600 0.03310
7.00800 -0.03094
7.01000 -0.01065
7.01200 0.06147
7.01400 -0.07441
7.01600 0.01477
7.01800 0.04886
7.02000 -0.02040
7.02200 -0.02102
7.02400 -0.00979
7.02600 -0.01379
7.02800 -0.07089
7.03000 -0.02861
7.03200 0.00772
7.03400 0.03005
7.03600 -0.12617
7.03800 -0.01444
7.04000 -0.01993
7.04200 -0.02153
7.04400 -0.03241
7.04600 0.05138
7.04800 0.02664
7.05000 0.01568
7.05200 0.03319
7.05400 0.04975
7.05600 0.10785
7.05800 -0.08555
7.06000 -0.06334
7.06200 0.06415
7.06400 -0.04130
7.06600 0.06795
7.06800 -0.06801
7.07000 -0.02387
7.07200 -0.00923
7.07400 -0.03476
7.07600 0.03847
7.07800 -0.10502
7.08000 -0.06210
7.08200 -0.02591
7.08400 0.03828
7.08600 -0.02589
7.08800 -0.01589
7.09000 -0.07553
7.09200 0.07174
7.09400 0.10910
7.09600 0.02952
7.09800 0.00735
7.10000 0.08344
7.10200 0.00258
7.10400 -0.10193
7.10600 -0.03324
7.10800 0.03293
7.11000 -0.03266
7.11200 -0.00480
7.11400 0.09672
7.11600 0.01497
7.11800 -0.14219
7.12000 -0.00209
7.12200 0.00744
7.12400 0.04545
7.12600 -0.02125
7.12800 -0.05770
7.13000 -0.02534
7.13200 0.02165
7.13400 0.04469
7.13600 -0.05741
7.13800 0.01533
7.14000 -0.03876
7.14200 0.01944
7.14400 -0.08742
7.14600 0.01131
7.14800 -0.03832
7.15000 -0.09579
7.15200 -0.01778
7.15400 0.01552
7.15600 0.06765
7.15800 0.03397
7.16000 -0.00161
7.16200 -0.00254
7.16400 0.07425
7.16600 0.12711
7.16800 -0.01896
7.17000 0.16392
7.17200 -0.06467
7.17400 -0.02855
7.17600 -0.02581
7.17800 0.01502
7.18000 0.00106
7.18200 -0.00084
7.18400 -0.01366
7.18600 -0.02612
7.18800 -0.04112
7.19000 -0.10015
7.19200 -0.00299
7.19400 0.05003
7.19600 0.00571
7.19800 -0.05491
7.20000 0.00731
7.20200 0.08053
7.20400 -0.00640
7.20600 0.08771
7.20800 0.01693
7.21000 0.03290
7.21200 -0.05414
7.21400 0.08184
7.21600 0.02069
7.21800 -0.08266
7.22000 -0.04399
7.22200 -0.06628
7.22400 -0.10253
7.22600 -0.11193
7.22800 -0.04979
7.23000 0.02861
7.23200 0.08575
7.23400 -0.03894
7.23600 -0.00330
7.23800 -0.05689
7.24000 -0.00606
7.24200 0.04036
7.24400 0.03392
7.24600 0.09136
7.24800 -0.01948
7.25000 0.03805
7.25200 0.10194
7.25400 -0.00534
7.25600 0.17471
7.25800 0.23612
7.26000 0.80023
7.26200 1.29466
7.26400 1.45163
7.26600 0.92551
7.26800 0.34337
7.27000 0.16509
7.27200 0.08461
7.27400 -0.03915
7.27600 0.03576
7.27800 0.04890
7.28000 0.00479
7.28200 0.11377
7.28400 -0.01596
7.28600 -0.01156
7.28800 -0.01628
7.29000 -0.00832
7.29200 0.08218
7.29400 -0.02113
7.29600 -0.01100
7.29800 -0.01563
7.30000 -0.09279
7.30200 -0.00159
7.30400 -0.05407
7.30600 -0.01274
7.30800 -0.06271
7.31000 -0.09806
7.31200 0.08885
7.31400 -0.19562
7.31600 -0.03386
7.31800 0.04106
7.32000 0.02221
7.32200 0.06252
7.32400 0.02024
7.32600 -0.04445
7.32800 -0.04088
7.33000 -0.03410
7.33200 -0.08240
7.33400 -0.10573
7.33600 0.09642
7.33800 0.07031
7.34000 -0.01657
7.34200 0.02429
7.34400 0.11528
7.34600 -0.05054
7.34800 -0.05436
7.35000 0.03637
7.35200 -0.05021
7.35400 -0.06216
7.35600 0.16492
7.35800 -0.02871
7.36000 0.15140
7.36200 -0.02674
7.36400 0.02263
7.36600 0.06103
7.36800 0.00396
7.37000 0.03015
7.37200 0.07776
7.37400 -0.04369
7.37600 0.04418
7.37800 -0.01433
7.38000 -0.01638
7.38200 0.10552
7.38400 0.04365
7.38600 0.01555
7.38800 0.01482
7.39000 -0.00661
7.39200 0.08522
7.39400 -0.02651
7.39600 -0.04501
7.39800 0.00677
7.40000 -0.01696
7.40200 -0.01484
7.40400 0.03905
7.40600 0.00690
7.40800 -0.02942
7.41000 0.07623
7.41200 -0.01738
7.41400 -0.01023
7.41600 -0.02327
7.41800 -0.03241
7.42000 0.04818
7.42200 0.03773
7.42400 0.05318
7.42600 0.04962
7.42800 0.06218
7.43000 0.00712
7.43200 0.05505
7.43400 0.07976
7.43600 -0.07658
7.43800 -0.10023
7.44000 0.10335
7.44200 -0.03091
7.44400 0.04666
7.44600 -0.01268
7.44800 0.05385
7.45000 0.04493
7.45200 0.01924
7.45400 0.00349
7.45600 -0.03084
7.45800 -0.00871
7.46000 0.02566
7.46200 -0.04495
7.46400 0.02669
7.46600 0.07268
7.46800 -0.09490
7.47000 -0.13864
7.47200 -0.06794
7.47400 0.10292
7.47600 -0.01277
7.47800 -0.13130
7.48000 -0.01747
7.48200 0.07680
7.48400 -0.03536
7.48600 -0.05447
7.48800 0.04533
7.49000 -0.03863
7.49200 0.07493
7.49400 0.09606
7.49600 -0.00587
7.49800 0.02336
7.50000 0.00432
7.50200 -0.04991
7.50400 0.02121
7.50600 0.04627
7.50800 -0.13306
7.51000 -0.07956
7.51200 -0.00653
7.51400 -0.04083
7.51600 0.04586
7.51800 -0.08496
7.52000 0.05858
7.52200 -0.01243
7.52400 0.05008
7.52600 -0.07658
7.52800 0.04557
7.53000 -0.07788
7.53200 0.09085
7.53400 -0.02617
7.53600 0.06345
7.53800 0.00620
7.54000 0.07815
7.54200 0.04505
7.54400 0.00646
7.54600 -0.09671
7.54800 0.01147
7.55000 -0.02732
7.55200 -0.06506
7.55400 0.00755
7.55600 -0.01520
7.55800 0.02640
7.56000 -0.14183
7.56200 0.02091
7.56400 0.02618
7.56600 0.10098
7.56800 0.06376
7.57000 0.01896
7.57200 0.08074
7.57400 0.08614
7.57600 -0.02290
7.57800 -0.00983
7.58000 -0.04546
7.58200 -0.01164
7.58400 -0.10999
7.58600 0.06453
7.58800 -0.00740
7.59000 -0.05461
7.59200 0.01699
7.59400 -0.02352
7.59600 0.08066
7.59800 0.01810
7.60000 -0.02655
7.60200 -0.03072
7.60400 -0.05231
7.60600 -0.00890
7.60800 -0.09005
7.61000 -0.03147
7.61200 -0.03624
7.61400 -0.08726
7.61600 0.06752
7.61800 0.01959
7.62000 -0.00552
7.62200 0.04655
7.62400 0.03740
7.62600 -0.07945
7.62800 0.05037
7.63000 0.00677
7.63200 -0.04407
7.63400 0.03522
7.63600 -0.05657
7.63800 -0.03945
7.64000 0.14337
7.64200 0.01796
7.64400 0.00889
7.64600 -0.09460
7.64800 -0.05978
7.65000 0.04773
7.65200 -0.11836
7.65400 -0.01741
7.65600 0.05514
7.65800 -0.04387
7.66000 0.05136
7.66200 -0.02763
7.66400 0.05452
7.66600 -0.04395
7.66800 0.00376
7.67000 0.04058
7.67200 -0.06342
7.67400 0.05104
7.67600 -0.02190
7.67800 0.03331
7.68000 0.07212
7.68200 -0.03042
7.68400 0.02756
7.68600 -0.08808
7.68800 0.00224
7.69000 -0.05380
7.69200 -0.03537
7.69400 0.08464
7.69600 -0.02116
7.69800 0.04166
7.70000 -0.11918
7.70200 0.04386
7.70400 0.06089
7.70600 -0.04694
7.70800 0.01807
7.71000 0.01372
7.71200 0.05992
7.71400 -0.04526
7.71600 0.08709
7.71800 -0.06439
7.72000 0.05390
7.72200 0.07288
7.72400 0.04452
7.72600 0.06724
7.72800 0.03789
7.73000 0.06015
7.73200 0.01279
7.73400 0.05953
7.73600 -0.01260
7.73800 -0.09832
7.74000 0.03313
7.74200 0.00007
7.74400 -0.00059
7.74600 -0.05420
7.74800 -0.07388
7.75000 -0.05092
7.75200 0.00103
7.75400 -0.03192
7.75600 -0.04695
7.75800 0.16292
7.76000 0.00165
7.76200 -0.02612
7.76400 0.09168
7.76600 -0.02481
7.76800 -0.10358
7.77000 -0.03639
7.77200 -0.09307
7.77400 -0.04153
7.77600 -0.02203
7.77800 0.02534
7.78000 0.03954
7.78200 -0.01608
7.78400 0.08409
7.78600 -0.02294
7.78800 -0.11803
7.79000 -0.00485
7.79200 -0.04678
7.79400 0.00266
7.79600 0.04878
7.79800 0.07125
7.80000 -0.05680
7.80200 -0.04186
7.80400 -0.02666
7.80600 -0.18901
7.80800 0.01996
7.81000 0.05589
7.81200 -0.02264
7.81400 -0.09394
7.81600 -0.01494
7.81800 0.03089
7.82000 -0.01572
7.82200 0.07638
7.82400 -0.03145
7.82600 -0.17450
7.82800 -0.08031
7.83000 -0.09097
7.83200 0.03742
7.83400 0.01352
7.83600 0.01758
7.83800 0.06066
7.84000 -0.12592
7.84200 0.03701
7.84400 0.02196
7.84600 -0.03410
7.84800 0.04535
7.85000 0.04346
7.85200 0.07447
7.85400 0.07562
7.85600 0.13445
7.85800 0.08919
7.86000 -0.01023
7.86200 -0.00113
7.86400 -0.00825
7.86600 0.08161
7.86800 -0.10438
7.87000 0.04284
7.87200 0.06360
7.87400 0.03248
7.87600 -0.03932
7.87800 0.03291
7.88000 0.04342
7.88200 -0.05604
7.88400 -0.01366
7.88600 0.03187
7.88800 0.07237
7.89000 0.50610
7.89200 0.96793
7.89400 1.49543
7.89600 1.47537
7.89800 0.90170
7.90000 0.36766
7.90200 0.10398
7.90400 0.09645
7.90600 0.15571
7.90800 -0.01096
7.91000 -0.03845
7.91200 -0.03038
7.91400 0.06156
7.91600 -0.00623
7.91800 -0.03725
7.92000 -0.08069
7.92200 0.11169
7.92400 -0.07829
7.92600 0.05761
7.92800 0.04115
7.93000 0.03719
7.93200 -0.00693
7.93400 0.06197
7.93600 0.13083
7.93800 0.05634
7.94000 -0.00722
7.94200 -0.04634
7.94400 0.03614
7.94600 0.08269
7.94800 0.01854
7.95000 -0.10107
7.95200 -0.01378
7.95400 0.00562
7.95600 -0.01602
7.95800 -0.11249
7.96000 -0.10241
7.96200 0.02191
7.96400 -0.07454
7.96600 0.02446
7.96800 0.03730
7.97000 -0.05865
7.97200 0.07798
7.97400 0.00599
7.97600 -0.06228
7.97800 0.01429
7.98000 0.00864
7.98200 0.03992
7.98400 0.03545
7.98600 -0.00340
7.98800 -0.03785
7.99000 -0.04227
7.99200 -0.14640
7.99400 0.09725
7.99600 -0.09269
7.99800 0.02217
8.00000 -0.05230
8.00200 -0.01445
8.00400 0.09828
8.00600 -0.06180
8.00800 0.00332
8.01000 -0.05695
8.01200 0.06097
8.01400 0.08568
8.01600 -0.05836
8.01800 -0.10117
8.02000 0.09570
8.02200 0.00788
8.02400 0.04786
8.02600 0.03165
8.02800 0.00166
8.03000 -0.13610
8.03200 0.02945
8.03400 0.05395
8.03600 -0.05027
8.03800 0.05536
8.04000 -0.07832
8.04200 -0.09449
8.04400 -0.07557
8.04600 0.04784
8.04800 -0.02697
8.05000 0.02832
8.05200 0.00888
8.05400 0.11209
8.05600 -0.03780
8.05800 -0.01134
8.06000 0.05802
8.06200 0.03045
8.06400 0.04646
8.06600 0.09994
8.06800 0.01736
8.07000 0.07968
8.07200 0.00462
8.07400 -0.01698
8.07600 -0.05257
8.07800 -0.06040
8.08000 0.02246
8.08200 0.01905
8.08400 0.06234
8.08600 -0.01880
8.08800 0.11166
8.09000 0.04375
8.09200 0.04087
8.09400 0.03352
8.09600 0.04458
8.09800 0.01195
8.10000 0.05375
8.10200 0.07741
8.10400 0.08038
8.10600 0.10433
8.10800 -0.14376
8.11000 0.02583
8.11200 0.00450
8.11400 0.03013
8.11600 -0.01660
8.11800 -0.02576
8.12000 -0.00113
8.12200 0.04435
8.12400 0.04592
8.12600 0.04228
8.12800 -0.05523
8.13000 0.02993
8.13200 0.04050
8.13400 0.00948
8.13600 -0.03248
8.13800 0.06243
8.14000 0.00278
8.14200 -0.04236
8.14400 -0.07782
8.14600 0.01354
8.14800 0.06008
8.15000 0.03288
8.15200 0.10219
8.15400 -0.07069
8.15600 0.00672
8.15800 0.07623
8.16000 -0.01955
8.16200 0.01445
8.16400 0.06623
8.16600 0.06944
8.16800 0.06735
8.17000 -0.00751
8.17200 -0.01215
8.17400 0.04285
8.17600 -0.00047
8.17800 -0.06949
8.18000 0.05467
8.18200 0.01455
8.18400 0.06223
8.18600 -0.07856
8.18800 -0.00672
8.19000 0.02643
8.19200 -0.10697
8.19400 -0.00964
8.19600 -0.02415
8.19800 0.07654
8.20000 0.00483
8.20200 0.05651
8.20400 -0.03566
8.20600 0.00076
8.20800 0.03194
8.21000 0.01452
8.21200 -0.02764
8.21400 -0.05555
8.21600 0.04810
8.21800 0.06138
8.22000 -0.05311
8.22200 -0.07078
8.22400 0.01305
8.22600 -0.03007
8.22800 0.06941
8.23000 -0.03264
8.23200 -0.07444
8.23400 -0.11462
8.23600 -0.05177
8.23800 0.06499
8.24000 0.05186
8.24200 -0.04313
8.24400 0.04441
8.24600 0.11382
8.24800 0.03838
8.25000 -0.04481
8.25200 0.04700
8.25400 -0.00450
8.25600 0.06939
8.25800 -0.00714
8.26000 -0.00639
8.26200 0.03409
8.26400 -0.03887
8.26600 0.05037
8.26800 -0.01016
8.27000 0.00724
8.27200 -0.17341
8.27400 -0.09441
8.27600 0.05559
8.27800 -0.02140
8.28000 -0.05954
8.28200 -0.01291
8.28400 -0.03233
8.28600 0.12816
8.28800 -0.03885
8.29000 0.09328
8.29200 -0.12417
8.29400 0.00672
8.29600 -0.04573
8.29800 -0.04662
8.30000 -0.07399
8.30200 -0.12509
8.30400 -0.01281
8.30600 -0.00754
8.30800 0.05274
8.31000 -0.04103
8.31200 -0.05751
8.31400 0.00361
8.31600 -0.00725
8.31800 0.01529
8.32000 0.06424
8.32200 0.04722
8.32400 -0.00114
8.32600 0.02349
8.32800 0.01189
8.33000 -0.00243
8.33200 -0.03162
8.33400 0.00890
8.33600 -0.00631
8.33800 0.09048
8.34000 -0.08239
8.34200 -0.02418
8.34400 0.00452
8.34600 -0.07033
8.34800 -0.06920
8.35000 0.02713
8.35200 0.00392
8.35400 0.00004
8.35600 -0.05029
8.35800 -0.04120
8.36000 -0.00462
8.36200 0.02036
8.36400 0.05191
8.36600 0.07938
8.36800 -0.10776
8.37000 0.02083
8.37200 -0.02520
8.37400 0.07831
8.37600 0.02091
8.37800 -0.02877
8.38000 -0.02223
8.38200 0.01522
8.38400 0.06347
8.38600 0.02404
8.38800 -0.01263
8.39000 -0.00993
8.39200 -0.15018
8.39400 -0.09097
8.39600 0.00571
8.39800 -0.06775
8.40000 0.04498
8.40200 0.00844
8.40400 -0.05467
8.40600 -0.05885
8.40800 -0.01034
8.41000 0.04462
8.41200 -0.06994
8.41400 0.01939
8.41600 0.02806
8.41800 -0.00421
8.42000 -0.03988
8.42200 0.09394
8.42400 -0.11849
8.42600 0.01793
8.42800 -0.07939
8.43000 0.01960
8.43200 -0.06342
8.43400 -0.02603
8.43600 0.01511
8.43800 0.00860
8.44000 -0.02934
8.44200 -0.06665
8.44400 0.11048
8.44600 0.06992
8.44800 0.02017
8.45000 -0.06112
8.45200 0.10824
8.45400 0.03437
8.45600 -0.01077
8.45800 0.12455
8.46000 -0.06196
8.46200 -0.02987
8.46400 -0.00677
8.46600 -0.01290
8.46800 0.00296
8.47000 -0.11599
8.47200 0.05140
8.47400 0.00661
8.47600 0.00609
8.47800 0.11074
8.48000 0.06857
8.48200 0.13769
8.48400 -0.01986
8.48600 0.12493
8.48800 0.04668
8.49000 -0.08768
8.49200 0.00941
8.49400 -0.02686
8.49600 -0.11542
8.49800 -0.00088
8.50000 0.02479
8.50200 0.01546
8.50400 -0.00310
8.50600 0.06774
8.50800 0.00032
8.51000 -0.02834
8.51200 -0.00980
8.51400 0.10527
8.51600 0.02239
8.51800 0.00813
8.52000 0.22634
8.52200 0.52617
8.52400 1.15916
8.52600 1.59687
8.52800 1.18271
8.53000 0.61341
8.53200 0.22530
8.53400 0.13148
8.53600 0.02107
8.53800 -0.04701
8.54000 -0.00982
8.54200 -0.05452
8.54400 0.07486
8.54600 -0.02883
8.54800 -0.06555
8.55000 -0.14707
8.55200 -0.05797
8.55400 0.07180
8.55600 -0.00898
8.55800 0.07389
8.56000 0.03347
8.56200 -0.04019
8.56400 -0.01165
8.56600 -0.01308
8.56800 -0.06912
8.57000 0.00835
8.57200 -0.04705
8.57400 0.01572
8.57600 0.05547
8.57800 0.01776
8.58000 -0.08402
8.58200 -0.00592
8.58400 0.03983
8.58600 -0.05924
8.58800 0.07225
8.59000 -0.01497
8.59200 0.00432
8.59400 -0.02583
8.59600 -0.03362
8.59800 -0.03011
8.60000 -0.03357
8.60200 0.04065
8.60400 -0.04516
8.60600 0.06465
8.60800 -0.04686
8.61000 -0.00666
8.61200 -0.05373
8.61400 -0.06152
8.61600 -0.02948
8.61800 0.04018
8.62000 0.03701
8.62200 0.03633
8.62400 -0.03881
8.62600 0.06543
8.62800 0.03679
8.63000 -0.02495
8.63200 -0.05570
8.63400 0.06572
8.63600 0.08547
8.63800 0.07126
8.64000 -0.06065
8.64200 -0.00690
8.64400 0.07273
8.64600 -0.01072
8.64800 -0.02660
8.65000 0.08490
8.65200 -0.02308
8.65400 -0.06700
8.65600 0.09761
8.65800 0.01703
8.66000 -0.03407
8.66200 0.02121
8.66400 0.00912
8.66600 0.07388
8.66800 0.05929
8.67000 -0.00455
8.67200 -0.14975
8.67400 -0.01633
8.67600 0.08404
8.67800 0.01685
8.68000 0.13982
8.68200 -0.07771
8.68400 -0.03874
8.68600 0.10732
8.68800 0.05032
8.69000 -0.05169
8.69200 0.12544
8.69400 0.02592
8.69600 0.02411
8.69800 0.03344
8.70000 -0.03088
8.70200 -0.09638
8.70400 -0.04333
8.70600 0.02633
8.70800 0.04322
8.71000 0.02179
8.71200 0.00761
8.71400 0.06652
8.71600 -0.02137
8.71800 -0.03044
8.72000 0.00253
8.72200 0.08131
8.72400 -0.07284
8.72600 -0.00413
8.72800 -0.02637
8.73000 -0.07334
8.73200 0.09306
8.73400 0.08126
8.73600 0.02228
8.73800 0.00895
8.74000 -0.10937
8.74200 -0.01350
8.74400 0.02199
8.74600 0.02185
8.74800 -0.01397
8.75000 -0.01726
8.75200 0.01490
8.75400 0.03038
8.75600 -0.07790
8.75800 -0.09231
8.76000 0.03026
8.76200 -0.02394
8.76400 -0.04757
8.76600 0.07547
8.76800 0.08728
8.77000 0.05112
8.77200 -0.03410
8.77400 0.12226
8.77600 0.04875
8.77800 0.02840
8.78000 -0.04505
8.78200 0.00465
8.78400 -0.12047
8.78600 -0.01444
8.78800 -0.00439
8.79000 -0.05559
8.79200 0.11008
8.79400 0.00983
8.79600 -0.03461
8.79800 -0.03658
8.80000 0.08551
8.80200 0.06269
8.80400 0.03653
8.80600 0.01517
8.80800 -0.05441
8.81000 0.03893
8.81200 -0.01691
8.81400 0.04824
8.81600 0.00717
8.81800 -0.04347
8.82000 0.04365
8.82200 0.10553
8.82400 0.09104
8.82600 0.02468
8.82800 0.02160
8.83000 -0.06081
8.83200 -0.00689
8.83400 -0.04268
8.83600 -0.03804
8.83800 0.00156
8.84000 -0.07162
8.84200 -0.07991
8.84400 0.00298
8.84600 -0.10197
8.84800 0.09676
8.85000 0.04296
8.85200 0.00064
8.85400 -0.00154
8.85600 -0.03146
8.85800 -0.03911
8.86000 0.03978
8.86200 0.01271
8.86400 -0.03546
8.86600 -0.11989
8.86800 0.05541
8.87000 -0.02099
8.87200 -0.02485
8.87400 0.01285
8.87600 -0.06151
8.87800 -0.04612
8.88000 0.09576
8.88200 0.02302
8.88400 -0.01285
8.88600 0.04319
8.88800 0.12222
8.89000 -0.03463
8.89200 0.02890
8.89400 0.03838
8.89600 -0.06327
8.89800 0.02339
8.90000 -0.05267
8.90200 -0.13178
8.90400 -0.02643
8.90600 0.03269
8.90800 0.09688
8.91000 -0.01752
8.91200 -0.02032
8.91400 -0.06544
8.91600 0.01922
8.91800 -0.03411
8.92000 -0.08126
8.92200 -0.01774
8.92400 -0.02404
8.92600 0.04892
8.92800 -0.08618
8.93000 0.02358
8.93200 -0.00800
8.93400 -0.00247
8.93600 -0.16769
8.93800 -0.06813
8.94000 -0.01881
8.94200 -0.06679
8.94400 0.06625
8.94600 0.01838
8.94800 -0.02283
8.95000 -0.17868
8.95200 -0.03533
8.95400 -0.07094
8.95600 0.00495
8.95800 -0.02092
8.96000 -0.02346
8.96200 -0.08369
8.96400 -0.01245
8.96600 -0.05626
8.96800 -0.05806
8.97000 -0.07277
8.97200 0.09424
8.97400 0.05683
8.97600 0.06175
8.97800 0.13128
8.98000 -0.02613
8.98200 -0.02396
8.98400 -0.02260
8.98600 -0.09273
8.98800 0.04329
8.99000 -0.06132
8.99200 -0.00334
8.99400 -0.06710
8.99600 0.04787
8.99800 -0.00201
9.00000 -0.02499
9.00200 0.01715
9.00400 0.03922
9.00600 0.02828
9.00800 -0.03917
9.01000 0.04676
9.01200 0.03500
9.01400 0.15677
9.01600 -0.04047
9.01800 0.00087
9.02000 0.02240
9.02200 -0.00570
9.02400 -0.03063
9.02600 0.06561
9.02800 -0.01039
9.03000 -0.05329
9.03200 0.01532
9.03400 0.01845
9.03600 0.11874
9.03800 -0.00183
9.04000 -0.06599
9.04200 -0.06166
9.04400 0.06604
9.04600 -0.01558
9.04800 -0.01493
9.05000 0.12574
9.05200 -0.00585
9.05400 0.10791
9.05600 0.04627
9.05800 0.01315
9.06000 -0.00853
9.06200 0.08422
9.06400 -0.05289
9.06600 0.02855
9.06800 -0.01658
9.07000 -0.00164
9.07200 0.10612
9.07400 0.04620
9.07600 0.05614
9.07800 0.01503
9.08000 -0.10414
9.08200 -0.06035
9.08400 -0.04080
9.08600 -0.10088
9.08800 0.07594
9.09000 -0.05561
9.09200 -0.02189
9.09400 -0.07301
9.09600 -0.00187
9.09800 0.04834
9.10000 0.06598
9.10200 0.01108
9.10400 -0.01238
9.10600 0.00847
9.10800 0.00375
9.11000 -0.02436
9.11200 0.07422
9.11400 -0.02775
9.11600 0.02996
9.11800 -0.05630
9.12000 -0.02820
9.12200 -0.04780
9.12400 -0.02514
9.12600 0.03649
9.12800 -0.11992
9.13000 0.04803
9.13200 0.00629
9.13400 0.07590
9.13600 0.04828
9.13800 0.06064
9.14000 -0.00347
9.14200 0.05780
9.14400 -0.01816
9.14600 -0.06312
9.14800 0.13420
9.15000 0.03806
9.15200 0.31628
9.15400 0.74408
9.15600 1.32700
9.15800 1.45374
9.16000 1.12533
9.16200 0.55438
9.16400 0.12929
9.16600 0.04338
9.16800 -0.04391
9.17000 -0.02620
9.17200 -0.10279
9.17400 -0.05430
9.17600 -0.05258
9.17800 0.06535
9.18000 0.06038
9.18200 0.01971
9.18400 0.03377
9.18600 0.06166
9.18800 0.10019
9.19000 -0.06028
9.19200 -0.01873
9.19400 -0.05315
9.19600 0.01258
9.19800 -0.02547
9.20000 0.01869
9.20200 0.03960
9.20400 0.07062
9.20600 -0.01603
9.20800 0.04654
9.21000 -0.07860
9.21200 -0.07949
9.21400 0.05133
9.21600 -0.04004
9.21800 -0.00408
9.22000 0.02964
9.22200 0.05174
9.22400 -0.06360
9.22600 0.00070
9.22800 -0.14668
9.23000 0.04265
9.23200 -0.10569
9.23400 -0.06722
9.23600 0.02237
9.23800 -0.03366
9.24000 -0.07470
9.24200 0.06754
9.24400 0.02557
9.24600 -0.05244
9.24800 -0.10044
9.25000 0.02010
9.25200 -0.05235
9.25400 0.05963
9.25600 0.07099
9.25800 -0.05093
9.26000 -0.00618
9.26200 0.02145
9.26400 0.09508
9.26600 -0.02072
9.26800 0.08338
9.27000 -0.08570
9.27200 -0.10321
9.27400 -0.11117
9.27600 -0.05842
9.27800 -0.04298
9.28000 0.06139
9.28200 -0.01016
9.28400 0.11995
9.28600 0.00904
9.28800 0.00299
9.29000 0.14733
9.29200 0.04290
9.29400 0.06555
9.29600 0.05708
9.29800 -0.00262
9.30000 -0.05615
9.30200 -0.12053
9.30400 -0.01709
9.30600 0.00720
9.30800 -0.09150
9.31000 0.09283
9.31200 -0.02179
9.31400 -0.01378
9.31600 -0.06234
9.31800 0.04326
9.32000 -0.01145
9.32200 -0.06491
9.32400 -0.03412
9.32600 -0.10679
9.32800 -0.08118
9.33000 0.05408
9.33200 -0.05376
9.33400 0.06116
9.33600 0.03686
9.33800 -0.04443
9.34000 -0.05391
9.34200 -0.07744
9.34400 -0.13118
9.34600 0.03589
9.34800 -0.06116
9.35000 -0.00831
9.35200 -0.01701
9.35400 0.02495
9.35600 0.02636
9.35800 -0.15259
9.36000 -0.04869
9.36200 -0.06918
9.36400 0.02515
9.36600 0.04231
9.36800 -0.03918
9.37000 0.04995
9.37200 0.04760
9.37400 -0.04186
9.37600 -0.03241
9.37800 0.04443
9.38000 -0.05599
9.38200 -0.00533
9.38400 -0.01007
9.38600 -0.04164
9.38800 -0.01381
9.39000 -0.02401
9.39200 -0.06140
9.39400 -0.15320
9.39600 -0.04469
9.39800 -0.06816
9.40000 -0.01076
9.40200 -0.01477
9.40400 0.02155
9.40600 -0.01549
9.40800 -0.03530
9.41000 0.01232
9.41200 0.09791
9.41400 0.07692
9.41600 0.08909
9.41800 0.02356
9.42000 0.05448
9.42200 0.08315
9.42400 0.02554
9.42600 -0.03769
9.42800 0.04030
9.43000 0.01802
9.43200 0.12163
9.43400 -0.04713
9.43600 -0.03687
9.43800 0.09466
9.44000 -0.03789
9.44200 0.05109
9.44400 0.10347
9.44600 -0.04014
9.44800 -0.08380
9.45000 0.09591
9.45200 0.05495
9.45400 -0.02555
9.45600 -0.05998
9.45800 0.10913
9.46000 0.09873
9.46200 -0.07592
9.46400 -0.11515
9.46600 0.05698
9.46800 -0.01953
9.47000 -0.02159
9.47200 0.05814
9.47400 -0.08852
9.47600 0.05833
9.47800 0.03851
9.48000 -0.08797
9.48200 -0.07248
9.48400 0.12517
9.48600 0.08828
9.48800 -0.06337
9.49000 0.03569
9.49200 0.01137
9.49400 -0.02931
9.49600 0.03384
9.49800 -0.05980
9.50000 -0.01125
9.50200 0.08791
9.50400 -0.01265
9.50600 0.07481
9.50800 -0.05009
9.51000 0.04489
9.51200 0.07273
9.51400 0.00900
9.51600 -0.03208
9.51800 0.02125
9.52000 -0.06019
9.52200 -0.06279
9.52400 -0.03164
9.52600 0.01457
9.52800 0.04405
9.53000 -0.04941
9.53200 -0.06754
9.53400 -0.04445
9.53600 0.00735
9.53800 0.01731
9.54000 -0.10366
9.54200 0.04879
9.54400 -0.00294
9.54600 -0.02636
9.54800 -0.00623
9.55000 0.02715
9.55200 -0.03936
9.55400 0.02868
9.55600 -0.11248
9.55800 -0.04598
9.56000 -0.06266
9.56200 -0.01097
9.56400 0.13381
9.56600 -0.00437
9.56800 -0.04331
9.57000 -0.10543
9.57200 -0.00435
9.57400 -0.03468
9.57600 -0.04003
9.57800 -0.07190
9.58000 -0.10874
9.58200 0.10005
9.58400 0.01824
9.58600 0.00368
9.58800 -0.05743
9.59000 -0.04223
9.59200 0.08899
9.59400 0.05157
9.59600 0.08161
9.59800 -0.03677
9.60000 -0.06545
9.60200 0.04386
9.60400 -0.11621
9.60600 0.03536
9.60800 -0.04286
9.61000 0.02056
9.61200 0.00677
9.61400 0.00381
9.61600 -0.00700
9.61800 0.05163
9.62000 -0.16620
9.62200 -0.03075
9.62400 -0.05956
9.62600 -0.09659
9.62800 0.05870
9.63000 0.02330
9.63200 -0.01826
9.63400 0.03599
9.63600 0.04588
9.63800 -0.02133
9.64000 0.02584
9.64200 -0.07597
9.64400 -0.06318
9.64600 -0.00190
9.64800 0.02423
9.65000 0.01001
9.65200 0.13304
9.65400 0.05689
9.65600 -0.04164
9.65800 -0.04597
9.66000 -0.04093
9.66200 0.03026
9.66400 0.05415
9.66600 0.02168
9.66800 0.03847
9.67000 0.13279
9.67200 0.07380
9.67400 0.14290
9.67600 0.05570
9.67800 -0.05118
9.68000 -0.10536
9.68200 -0.04424
9.68400 -0.09343
9.68600 0.08496
9.68800 -0.00792
9.69000 -0.07160
9.69200 -0.07548
9.69400 -0.07815
9.69600 -0.00273
9.69800 -0.06328
9.70000 -0.04040
9.70200 0.00063
9.70400 0.02474
9.70600 -0.04529
9.70800 -0.00578
9.71000 0.10016
9.71200 0.00517
9.71400 0.12526
9.71600 0.08505
9.71800 0.03325
9.72000 -0.01990
9.72200 -0.07556
9.72400 0.02577
9.72600 -0.04989
9.72800 0.04765
9.73000 -0.03208
9.73200 -0.07029
9.73400 -0.00715
9.73600 -0.11615
9.73800 -0.00289
9.74000 -0.10909
9.74200 0.00062
9.74400 0.07718
9.74600 0.05683
9.74800 0.04798
9.75000 -0.08612
9.75200 0.03115
9.75400 0.01880
9.75600 -0.02306
9.75800 -0.06317
9.76000 0.11576
9.76200 0.02581
9.76400 0.10413
9.76600 0.03398
9.76800 0.02054
9.77000 0.01243
9.77200 0.04601
9.77400 -0.09005
9.77600 0.05125
9.77800 -0.03131
9.78000 0.03217
9.78200 0.07640
9.78400 0.34830
9.78600 0.82575
9.78800 1.35785
9.79000 1.47983
9.79200 1.03172
9.79400 0.53606
9.79600 0.20479
9.79800 0.01217
9.80000 -0.05424
9.80200 -0.01475
9.80400 0.03324
9.80600 0.00811
9.80800 -0.09028
9.81000 -0.03159
9.81200 -0.02470
9.81400 0.02808
9.81600 -0.04466
9.81800 0.03410
9.82000 0.00021
9.82200 0.07971
9.82400 -0.13150
9.82600 -0.03648
9.82800 0.02963
9.83000 0.06231
9.83200 0.04777
9.83400 -0.01366
9.83600 -0.03775
9.83800 -0.02294
9.84000 -0.05774
9.84200 -0.09440
9.84400 0.02378
9.84600 -0.12783
9.84800 -0.00445
9.85000 -0.05624
9.85200 -0.01988
9.85400 -0.15431
9.85600 -0.01240
9.85800 0.00508
9.86000 0.07039
9.86200 0.02546
9.86400 0.00240
9.86600 0.01020
9.86800 -0.03933
9.87000 0.04140
9.87200 0.01756
9.87400 -0.02555
9.87600 0.03285
9.87800 0.06689
9.88000 -0.02049
9.88200 0.03728
9.88400 0.00136
9.88600 -0.00802
9.88800 0.06023
9.89000 0.04468
9.89200 0.05102
9.89400 0.03479
9.89600 -0.00340
9.89800 -0.02568
9.90000 -0.14670
9.90200 0.05240
9.90400 0.08586
9.90600 0.04051
9.90800 0.06401
9.91000 -0.01287
9.91200 -0.01852
9.91400 0.01777
9.91600 -0.01059
9.91800 0.01686
9.92000 0.03820
9.92200 0.03598
9.92400 0.04581
9.92600 -0.04260
9.92800 -0.08016
9.93000 -0.02119
9.93200 -0.01678
9.93400 0.02899
9.93600 0.00585
9.93800 -0.02668
9.94000 0.02201
9.94200 0.16443
9.94400 -0.08189
9.94600 0.03884
9.94800 -0.04772
9.95000 0.05521
9.95200 -0.06579
9.95400 0.02834
9.95600 0.10586
9.95800 -0.03647
9.96000 -0.09612
9.96200 -0.00288
9.96400 0.00336
9.96600 -0.01855
9.96800 0.02774
9.97000 -0.04871
9.97200 -0.07432
9.97400 0.05439
9.97600 -0.04185
9.97800 0.09045
9.98000 -0.07902
9.98200 0.00101
9.98400 -0.00849
9.98600 -0.07918
9.98800 -0.08816
9.99000 0.07547
9.99200 -0.07363
9.99400 0.01155
9.99600 -0.00880
9.99800 -0.14794
