cas[s]  ekg[mV]
0.00000 -0.14500
0.00278 -0.14500
0.00556 -0.14500
0.00833 -0.14500
0.01111 -0.14500
0.01389 -0.14500
0.01667 -0.14500
0.01944 -0.14500
0.02222 -0.12000
0.02500 -0.13500
0.02778 -0.14500
0.03056 -0.15000
0.03333 -0.16000
0.03611 -0.15500
0.03889 -0.16000
0.04167 -0.17500
0.04444 -0.18000
0.04722 -0.18500
0.05000 -0.17000
0.05278 -0.15500
0.05556 -0.17500
0.05833 -0.18000
0.06111 -0.19000
0.06389 -0.18000
0.06667 -0.15500
0.06944 -0.13500
0.07222 -0.15500
0.07500 -0.19000
0.07778 -0.20500
0.08056 -0.23500
0.08333 -0.22500
0.08611 -0.24500
0.08889 -0.25000
0.09167 -0.26000
0.09444 -0.27500
0.09722 -0.27500
0.10000 -0.27500
0.10278 -0.26500
0.10556 -0.25500
0.10833 -0.26500
0.11111 -0.27500
0.11389 -0.29000
0.11667 -0.29000
0.11944 -0.29000
0.12222 -0.29000
0.12500 -0.28500
0.12778 -0.29500
0.13056 -0.30500
0.13333 -0.28500
0.13611 -0.27500
0.13889 -0.27500
0.14167 -0.28000
0.14444 -0.28500
0.14722 -0.30500
0.15000 -0.29000
0.15278 -0.30000
0.15556 -0.28000
0.15833 -0.29000
0.16111 -0.30000
0.16389 -0.31500
0.16667 -0.32000
0.16944 -0.33500
0.17222 -0.36000
0.17500 -0.38500
0.17778 -0.38500
0.18056 -0.40500
0.18333 -0.45500
0.18611 -0.48500
0.18889 -0.48500
0.19167 -0.42500
0.19444 -0.33000
0.19722 -0.22000
0.20000 -0.07000
0.20278 0.12000
0.20556 0.37500
0.20833 0.62000
0.21111 0.78000
0.21389 0.84000
0.21667 0.76500
0.21944 0.52000
0.22222 0.17000
0.22500 -0.16500
0.22778 -0.36500
0.23056 -0.43500
0.23333 -0.42500
0.23611 -0.37000
0.23889 -0.33000
0.24167 -0.32500
0.24444 -0.33500
0.24722 -0.34500
0.25000 -0.33000
0.25278 -0.32500
0.25556 -0.31500
0.25833 -0.31000
0.26111 -0.32000
0.26389 -0.33500
0.26667 -0.34000
0.26944 -0.32500
0.27222 -0.34500
0.27500 -0.33500
0.27778 -0.33000
0.28056 -0.33500
0.28333 -0.33000
0.28611 -0.32500
0.28889 -0.33000
0.29167 -0.33000
0.29444 -0.34500
0.29722 -0.35500
0.30000 -0.33500
0.30278 -0.32500
0.30556 -0.30500
0.30833 -0.32000
0.31111 -0.32000
0.31389 -0.33000
0.31667 -0.34000
0.31944 -0.33500
0.32222 -0.34000
0.32500 -0.34500
0.32778 -0.35500
0.33056 -0.35500
0.33333 -0.34000
0.33611 -0.33000
0.33889 -0.33000
0.34167 -0.33000
0.34444 -0.34000
0.34722 -0.35000
0.35000 -0.32500
0.35278 -0.32500
0.35556 -0.33000
0.35833 -0.33000
0.36111 -0.33500
0.36389 -0.33500
0.36667 -0.34000
0.36944 -0.33000
0.37222 -0.34000
0.37500 -0.35000
0.37778 -0.35500
0.38056 -0.35000
0.38333 -0.34500
0.38611 -0.33000
0.38889 -0.32000
0.39167 -0.33500
0.39444 -0.33000
0.39722 -0.34500
0.40000 -0.33000
0.40278 -0.33500
0.40556 -0.33500
0.40833 -0.34500
0.41111 -0.34500
0.41389 -0.35500
0.41667 -0.34000
0.41944 -0.34000
0.42222 -0.33500
0.42500 -0.33000
0.42778 -0.35000
0.43056 -0.35000
0.43333 -0.34500
0.43611 -0.33500
0.43889 -0.33500
0.44167 -0.33500
0.44444 -0.35000
0.44722 -0.35500
0.45000 -0.35500
0.45278 -0.34500
0.45556 -0.34500
0.45833 -0.33500
0.46111 -0.35000
0.46389 -0.36000
0.46667 -0.36000
0.46944 -0.36000
0.47222 -0.36500
0.47500 -0.36000
0.47778 -0.37000
0.48056 -0.38500
0.48333 -0.37000
0.48611 -0.36000
0.48889 -0.35500
0.49167 -0.36000
0.49444 -0.37500
0.49722 -0.37500
0.50000 -0.36500
0.50278 -0.36500
0.50556 -0.36000
0.50833 -0.36000
0.51111 -0.36500
0.51389 -0.37000
0.51667 -0.35500
0.51944 -0.33000
0.52222 -0.32500
0.52500 -0.32500
0.52778 -0.33500
0.53056 -0.34000
0.53333 -0.31500
0.53611 -0.30000
0.53889 -0.30000
0.54167 -0.29000
0.54444 -0.29500
0.54722 -0.29000
0.55000 -0.28500
0.55278 -0.27500
0.55556 -0.25500
0.55833 -0.25000
0.56111 -0.25000
0.56389 -0.26500
0.56667 -0.25500
0.56944 -0.24500
0.57222 -0.23000
0.57500 -0.24500
0.57778 -0.24500
0.58056 -0.25500
0.58333 -0.25500
0.58611 -0.24000
0.58889 -0.25000
0.59167 -0.25500
0.59444 -0.24500
0.59722 -0.25500
0.60000 -0.25000
0.60278 -0.25000
0.60556 -0.26500
0.60833 -0.26000
0.61111 -0.26000
0.61389 -0.26500
0.61667 -0.27000
0.61944 -0.26500
0.62222 -0.26000
0.62500 -0.27500
0.62778 -0.28000
0.63056 -0.29000
0.63333 -0.27500
0.63611 -0.27000
0.63889 -0.26000
0.64167 -0.28000
0.64444 -0.28000
0.64722 -0.28500
0.65000 -0.27500
0.65278 -0.27500
0.65556 -0.26500
0.65833 -0.27000
0.66111 -0.28500
0.66389 -0.29000
0.66667 -0.28000
0.66944 -0.27500
0.67222 -0.28500
0.67500 -0.28000
0.67778 -0.30000
0.68056 -0.30000
0.68333 -0.30500
0.68611 -0.29500
0.68889 -0.30000
0.69167 -0.31000
0.69444 -0.31000
0.69722 -0.30500
0.70000 -0.29500
0.70278 -0.28500
0.70556 -0.28500
0.70833 -0.29000
0.71111 -0.29500
0.71389 -0.31000
0.71667 -0.29000
0.71944 -0.29500
0.72222 -0.30000
0.72500 -0.30500
0.72778 -0.31000
0.73056 -0.32500
0.73333 -0.31000
0.73611 -0.30000
0.73889 -0.29000
0.74167 -0.31000
0.74444 -0.32500
0.74722 -0.33000
0.75000 -0.31500
0.75278 -0.30000
0.75556 -0.30500
0.75833 -0.31000
0.76111 -0.32000
0.76389 -0.33000
0.76667 -0.32500
0.76944 -0.31500
0.77222 -0.31000
0.77500 -0.30500
0.77778 -0.30500
0.78056 -0.31000
0.78333 -0.30000
0.78611 -0.30500
0.78889 -0.29000
0.79167 -0.30000
0.79444 -0.30000
0.79722 -0.30500
0.80000 -0.30500
0.80278 -0.29000
0.80556 -0.28000
0.80833 -0.29500
0.81111 -0.30500
0.81389 -0.31500
0.81667 -0.30500
0.81944 -0.29500
0.82222 -0.29000
0.82500 -0.28000
0.82778 -0.27000
0.83056 -0.27500
0.83333 -0.27500
0.83611 -0.27000
0.83889 -0.25000
0.84167 -0.25000
0.84444 -0.25500
0.84722 -0.22500
0.85000 -0.22000
0.85278 -0.20500
0.85556 -0.20000
0.85833 -0.20500
0.86111 -0.21500
0.86389 -0.23000
0.86667 -0.22000
0.86944 -0.22500
0.87222 -0.22500
0.87500 -0.22500
0.87778 -0.23000
0.88056 -0.23500
0.88333 -0.24000
0.88611 -0.23500
0.88889 -0.22000
0.89167 -0.21000
0.89444 -0.20500
0.89722 -0.24500
0.90000 -0.28500
0.90278 -0.28500
0.90556 -0.30000
0.90833 -0.31000
0.91111 -0.33000
0.91389 -0.33000
0.91667 -0.32500
0.91944 -0.31500
0.92222 -0.32000
0.92500 -0.31500
0.92778 -0.32500
0.93056 -0.34000
0.93333 -0.34500
0.93611 -0.34000
0.93889 -0.34000
0.94167 -0.35000
0.94444 -0.34500
0.94722 -0.35500
0.95000 -0.33000
0.95278 -0.33500
0.95556 -0.33000
0.95833 -0.32000
0.96111 -0.34500
0.96389 -0.35500
0.96667 -0.34000
0.96944 -0.33000
0.97222 -0.32500
0.97500 -0.33000
0.97778 -0.35000
0.98056 -0.36500
0.98333 -0.36000
0.98611 -0.38000
0.98889 -0.42500
0.99167 -0.44500
0.99444 -0.47500
0.99722 -0.51000
1.00000 -0.53500
1.00278 -0.50500
1.00556 -0.41500
1.00833 -0.30000
1.01111 -0.16000
1.01389 -0.01500
1.01667 0.23500
1.01944 0.49000
1.02222 0.72000
1.02500 0.87500
1.02778 0.94000
1.03056 0.90500
1.03333 0.75500
1.03611 0.49000
1.03889 0.16500
1.04167 -0.11000
1.04444 -0.27000
1.04722 -0.39000
1.05000 -0.45000
1.05278 -0.47500
1.05556 -0.45500
1.05833 -0.42500
1.06111 -0.39000
1.06389 -0.39000
1.06667 -0.38500
1.06944 -0.39000
1.07222 -0.38000
1.07500 -0.38000
1.07778 -0.38000
1.08056 -0.39500
1.08333 -0.38500
1.08611 -0.38500
1.08889 -0.38500
1.09167 -0.37500
1.09444 -0.39500
1.09722 -0.41000
1.10000 -0.41000
1.10278 -0.40000
1.10556 -0.39500
1.10833 -0.39000
1.11111 -0.40500
1.11389 -0.39500
1.11667 -0.38500
1.11944 -0.37500
1.12222 -0.39000
1.12500 -0.39000
1.12778 -0.40500
1.13056 -0.41000
1.13333 -0.41000
1.13611 -0.39000
1.13889 -0.39000
1.14167 -0.39500
1.14444 -0.40500
1.14722 -0.41500
1.15000 -0.40000
1.15278 -0.41000
1.15556 -0.40500
1.15833 -0.41000
1.16111 -0.41500
1.16389 -0.41000
1.16667 -0.40000
1.16944 -0.40000
1.17222 -0.39500
1.17500 -0.39000
1.17778 -0.40500
1.18056 -0.41000
1.18333 -0.39000
1.18611 -0.39000
1.18889 -0.38500
1.19167 -0.38500
1.19444 -0.41000
1.19722 -0.40500
1.20000 -0.39500
1.20278 -0.39000
1.20556 -0.37500
1.20833 -0.39000
1.21111 -0.39500
1.21389 -0.41000
1.21667 -0.40000
1.21944 -0.39000
1.22222 -0.39000
1.22500 -0.38500
1.22778 -0.40500
1.23056 -0.41500
1.23333 -0.41500
1.23611 -0.40000
1.23889 -0.39500
1.24167 -0.40500
1.24444 -0.41500
1.24722 -0.42000
1.25000 -0.42000
1.25278 -0.41000
1.25556 -0.41500
1.25833 -0.42500
1.26111 -0.42000
1.26389 -0.43500
1.26667 -0.43000
1.26944 -0.43000
1.27222 -0.42000
1.27500 -0.43000
1.27778 -0.45000
1.28056 -0.45500
1.28333 -0.45000
1.28611 -0.43500
1.28889 -0.44500
1.29167 -0.45000
1.29444 -0.45500
1.29722 -0.47000
1.30000 -0.46000
1.30278 -0.45500
1.30556 -0.45000
1.30833 -0.45500
1.31111 -0.47000
1.31389 -0.47500
1.31667 -0.46000
1.31944 -0.45000
1.32222 -0.44500
1.32500 -0.44000
1.32778 -0.43500
1.33056 -0.44000
1.33333 -0.41000
1.33611 -0.39500
1.33889 -0.37000
1.34167 -0.36500
1.34444 -0.36000
1.34722 -0.36500
1.35000 -0.34000
1.35278 -0.32500
1.35556 -0.31500
1.35833 -0.32000
1.36111 -0.33000
1.36389 -0.33000
1.36667 -0.32000
1.36944 -0.31000
1.37222 -0.30000
1.37500 -0.30000
1.37778 -0.32000
1.38056 -0.32000
1.38333 -0.31500
1.38611 -0.30500
1.38889 -0.30500
1.39167 -0.29500
1.39444 -0.32000
1.39722 -0.33000
1.40000 -0.30500
1.40278 -0.31000
1.40556 -0.30000
1.40833 -0.30000
1.41111 -0.32000
1.41389 -0.32500
1.41667 -0.31000
1.41944 -0.30500
1.42222 -0.31500
1.42500 -0.30500
1.42778 -0.31500
1.43056 -0.31500
1.43333 -0.31000
1.43611 -0.29500
1.43889 -0.29000
1.44167 -0.30500
1.44444 -0.31000
1.44722 -0.32000
1.45000 -0.31500
1.45278 -0.30000
1.45556 -0.31500
1.45833 -0.31500
1.46111 -0.31500
1.46389 -0.33000
1.46667 -0.31500
1.46944 -0.32000
1.47222 -0.31500
1.47500 -0.32500
1.47778 -0.33500
1.48056 -0.34000
1.48333 -0.33500
1.48611 -0.33500
1.48889 -0.33000
1.49167 -0.32500
1.49444 -0.34500
1.49722 -0.35000
1.50000 -0.34500
1.50278 -0.33500
1.50556 -0.33000
1.50833 -0.33000
1.51111 -0.34500
1.51389 -0.34500
1.51667 -0.34500
1.51944 -0.32000
1.52222 -0.33000
1.52500 -0.33500
1.52778 -0.34000
1.53056 -0.35500
1.53333 -0.33500
1.53611 -0.33000
1.53889 -0.33000
1.54167 -0.33500
1.54444 -0.35500
1.54722 -0.36000
1.55000 -0.35500
1.55278 -0.35000
1.55556 -0.34000
1.55833 -0.34500
1.56111 -0.34500
1.56389 -0.34500
1.56667 -0.34500
1.56944 -0.33000
1.57222 -0.33000
1.57500 -0.33500
1.57778 -0.34500
1.58056 -0.35000
1.58333 -0.35000
1.58611 -0.34000
1.58889 -0.33000
1.59167 -0.34500
1.59444 -0.34500
1.59722 -0.35500
1.60000 -0.35000
1.60278 -0.34000
1.60556 -0.33000
1.60833 -0.34000
1.61111 -0.34000
1.61389 -0.34000
1.61667 -0.33000
1.61944 -0.33500
1.62222 -0.33000
1.62500 -0.33500
1.62778 -0.34500
1.63056 -0.34500
1.63333 -0.34000
1.63611 -0.33000
1.63889 -0.31500
1.64167 -0.29500
1.64444 -0.30000
1.64722 -0.29500
1.65000 -0.28500
1.65278 -0.27500
1.65556 -0.26500
1.65833 -0.26500
1.66111 -0.26500
1.66389 -0.25500
1.66667 -0.25000
1.66944 -0.24000
1.67222 -0.22500
1.67500 -0.21500
1.67778 -0.24000
1.68056 -0.24500
1.68333 -0.24000
1.68611 -0.24500
1.68889 -0.23500
1.69167 -0.24500
1.69444 -0.25000
1.69722 -0.27500
1.70000 -0.27500
1.70278 -0.26500
1.70556 -0.25000
1.70833 -0.22500
1.71111 -0.22000
1.71389 -0.23000
1.71667 -0.26500
1.71944 -0.27000
1.72222 -0.28000
1.72500 -0.28500
1.72778 -0.30500
1.73056 -0.32000
1.73333 -0.34000
1.73611 -0.33000
1.73889 -0.33500
1.74167 -0.33500
1.74444 -0.35500
1.74722 -0.37000
1.75000 -0.36000
1.75278 -0.34500
1.75556 -0.35000
1.75833 -0.35500
1.76111 -0.36500
1.76389 -0.37500
1.76667 -0.38000
1.76944 -0.37000
1.77222 -0.36500
1.77500 -0.36500
1.77778 -0.38000
1.78056 -0.38500
1.78333 -0.38000
1.78611 -0.37500
1.78889 -0.35500
1.79167 -0.37000
1.79444 -0.39000
1.79722 -0.40500
1.80000 -0.41000
1.80278 -0.43500
1.80556 -0.46500
1.80833 -0.49000
1.81111 -0.52000
1.81389 -0.55500
1.81667 -0.57000
1.81944 -0.52500
1.82222 -0.40500
1.82500 -0.25000
1.82778 -0.09000
1.83056 0.12000
1.83333 0.41000
1.83611 0.69000
1.83889 0.88500
1.84167 0.96000
1.84444 0.85000
1.84722 0.52000
1.85000 0.05000
1.85278 -0.32000
1.85556 -0.50000
1.85833 -0.50500
1.86111 -0.44500
1.86389 -0.41500
1.86667 -0.39500
1.86944 -0.39000
1.87222 -0.39500
1.87500 -0.39000
1.87778 -0.39500
1.88056 -0.40500
1.88333 -0.39500
1.88611 -0.40500
1.88889 -0.39000
1.89167 -0.39500
1.89444 -0.39500
1.89722 -0.41000
1.90000 -0.40500
1.90278 -0.40000
1.90556 -0.40000
1.90833 -0.41500
1.91111 -0.40500
1.91389 -0.42000
1.91667 -0.41500
1.91944 -0.40500
1.92222 -0.40500
1.92500 -0.42000
1.92778 -0.42000
1.93056 -0.43500
1.93333 -0.42000
1.93611 -0.41000
1.93889 -0.41000
1.94167 -0.40500
1.94444 -0.42500
1.94722 -0.43000
1.95000 -0.42000
1.95278 -0.41500
1.95556 -0.41000
1.95833 -0.41000
1.96111 -0.42500
1.96389 -0.42000
1.96667 -0.40000
1.96944 -0.39500
1.97222 -0.40000
1.97500 -0.40000
1.97778 -0.39500
1.98056 -0.41500
1.98333 -0.40500
1.98611 -0.39000
1.98889 -0.40000
1.99167 -0.40000
1.99444 -0.41500
1.99722 -0.42500
2.00000 -0.42500
2.00278 -0.41500
2.00556 -0.41500
2.00833 -0.41000
2.01111 -0.42500
2.01389 -0.42500
2.01667 -0.42000
2.01944 -0.41500
2.02222 -0.40000
2.02500 -0.40000
2.02778 -0.41000
2.03056 -0.42500
2.03333 -0.41000
2.03611 -0.40500
2.03889 -0.39500
2.04167 -0.40000
2.04444 -0.40000
2.04722 -0.40500
2.05000 -0.38500
2.05278 -0.40000
2.05556 -0.39000
2.05833 -0.39000
2.06111 -0.40000
2.06389 -0.41500
2.06667 -0.40500
2.06944 -0.40500
2.07222 -0.41000
2.07500 -0.41500
2.07778 -0.42000
2.08056 -0.42000
2.08333 -0.42500
2.08611 -0.41500
2.08889 -0.41500
2.09167 -0.41000
2.09444 -0.43500
2.09722 -0.43000
2.10000 -0.43500
2.10278 -0.42000
2.10556 -0.42000
2.10833 -0.42000
2.11111 -0.42000
2.11389 -0.42500
2.11667 -0.42500
2.11944 -0.41500
2.12222 -0.39500
2.12500 -0.39500
2.12778 -0.39000
2.13056 -0.37500
2.13333 -0.36000
2.13611 -0.34000
2.13889 -0.33500
2.14167 -0.33000
2.14444 -0.33500
2.14722 -0.33500
2.15000 -0.32500
2.15278 -0.32000
2.15556 -0.30500
2.15833 -0.30500
2.16111 -0.31500
2.16389 -0.31000
2.16667 -0.30500
2.16944 -0.30000
2.17222 -0.30000
2.17500 -0.30000
2.17778 -0.31000
2.18056 -0.31000
2.18333 -0.31000
2.18611 -0.31500
2.18889 -0.30000
2.19167 -0.30500
2.19444 -0.31500
2.19722 -0.32000
2.20000 -0.32500
2.20278 -0.31000
2.20556 -0.30500
2.20833 -0.30500
2.21111 -0.32000
2.21389 -0.32500
2.21667 -0.30500
2.21944 -0.31000
2.22222 -0.29500
2.22500 -0.31000
2.22778 -0.32500
2.23056 -0.33000
2.23333 -0.32000
2.23611 -0.32000
2.23889 -0.32000
2.24167 -0.32500
2.24444 -0.35000
2.24722 -0.35000
2.25000 -0.34000
2.25278 -0.33500
2.25556 -0.33000
2.25833 -0.33500
2.26111 -0.34000
2.26389 -0.36000
2.26667 -0.35000
2.26944 -0.35000
2.27222 -0.35500
2.27500 -0.36000
2.27778 -0.35500
2.28056 -0.36500
2.28333 -0.35500
2.28611 -0.35000
2.28889 -0.34000
2.29167 -0.35500
2.29444 -0.35000
2.29722 -0.36500
2.30000 -0.36500
2.30278 -0.35000
2.30556 -0.35500
2.30833 -0.35000
2.31111 -0.37000
2.31389 -0.38000
2.31667 -0.37000
2.31944 -0.36000
2.32222 -0.36500
2.32500 -0.36000
2.32778 -0.36500
2.33056 -0.38000
2.33333 -0.37000
2.33611 -0.36500
2.33889 -0.35000
2.34167 -0.35000
2.34444 -0.35000
2.34722 -0.37000
2.35000 -0.36500
2.35278 -0.34500
2.35556 -0.34500
2.35833 -0.34000
2.36111 -0.35500
2.36389 -0.36500
2.36667 -0.36000
2.36944 -0.35500
2.37222 -0.35500
2.37500 -0.35500
2.37778 -0.37500
2.38056 -0.38500
2.38333 -0.35500
2.38611 -0.36000
2.38889 -0.35500
2.39167 -0.36000
2.39444 -0.36000
2.39722 -0.37000
2.40000 -0.36000
2.40278 -0.34500
2.40556 -0.35500
2.40833 -0.34500
2.41111 -0.34500
2.41389 -0.34500
2.41667 -0.34000
2.41944 -0.31000
2.42222 -0.30500
2.42500 -0.30500
2.42778 -0.31000
2.43056 -0.30500
2.43333 -0.29000
2.43611 -0.28500
2.43889 -0.27500
2.44167 -0.28000
2.44444 -0.28000
2.44722 -0.27500
2.45000 -0.26500
2.45278 -0.25500
2.45556 -0.24500
2.45833 -0.26000
2.46111 -0.26500
2.46389 -0.27500
2.46667 -0.28000
2.46944 -0.26500
2.47222 -0.27000
2.47500 -0.27500
2.47778 -0.28000
2.48056 -0.27500
2.48333 -0.28000
2.48611 -0.27500
2.48889 -0.26500
2.49167 -0.25500
2.49444 -0.24000
2.49722 -0.26000
2.50000 -0.28000
2.50278 -0.31000
2.50556 -0.31000
2.50833 -0.34500
2.51111 -0.36000
2.51389 -0.38000
2.51667 -0.38500
2.51944 -0.38000
2.52222 -0.37000
2.52500 -0.37500
2.52778 -0.38500
2.53056 -0.39000
2.53333 -0.39500
2.53611 -0.38500
2.53889 -0.38500
2.54167 -0.38500
2.54444 -0.39500
2.54722 -0.40500
2.55000 -0.40000
2.55278 -0.37500
2.55556 -0.37500
2.55833 -0.39000
2.56111 -0.39500
2.56389 -0.41500
2.56667 -0.40500
2.56944 -0.40000
2.57222 -0.39000
2.57500 -0.40500
2.57778 -0.42500
2.58056 -0.46000
2.58333 -0.47500
2.58611 -0.50500
2.58889 -0.51000
2.59167 -0.52500
2.59444 -0.54000
2.59722 -0.60000
2.60000 -0.64500
2.60278 -0.63000
2.60556 -0.57500
2.60833 -0.49500
2.61111 -0.38500
2.61389 -0.27000
2.61667 -0.11500
2.61944 0.09000
2.62222 0.37000
2.62500 0.63500
2.62778 0.81000
2.63056 0.86000
2.63333 0.77000
2.63611 0.47500
2.63889 0.06500
2.64167 -0.30500
2.64444 -0.50000
2.64722 -0.52000
2.65000 -0.47500
2.65278 -0.41000
2.65556 -0.39000
2.65833 -0.39000
2.66111 -0.40000
2.66389 -0.41000
2.66667 -0.40500
2.66944 -0.38500
2.67222 -0.39000
2.67500 -0.39500
2.67778 -0.40500
2.68056 -0.41000
2.68333 -0.40500
2.68611 -0.40000
2.68889 -0.39000
2.69167 -0.39500
2.69444 -0.41000
2.69722 -0.41500
2.70000 -0.41000
2.70278 -0.39500
2.70556 -0.40500
2.70833 -0.41000
2.71111 -0.40500
2.71389 -0.40500
2.71667 -0.41000
2.71944 -0.39000
2.72222 -0.38500
2.72500 -0.39000
2.72778 -0.39500
2.73056 -0.40000
2.73333 -0.40000
2.73611 -0.40000
2.73889 -0.39500
2.74167 -0.39500
2.74444 -0.40500
2.74722 -0.40500
2.75000 -0.40000
2.75278 -0.39500
2.75556 -0.38500
2.75833 -0.37500
2.76111 -0.38500
2.76389 -0.39500
2.76667 -0.39000
2.76944 -0.38500
2.77222 -0.37500
2.77500 -0.38500
2.77778 -0.39500
2.78056 -0.39500
2.78333 -0.38500
2.78611 -0.37500
2.78889 -0.37500
2.79167 -0.38500
2.79444 -0.39500
2.79722 -0.39000
2.80000 -0.39000
2.80278 -0.36500
2.80556 -0.37500
2.80833 -0.38500
2.81111 -0.39500
2.81389 -0.38000
2.81667 -0.38500
2.81944 -0.37500
2.82222 -0.38000
2.82500 -0.39000
2.82778 -0.38000
2.83056 -0.37500
2.83333 -0.37500
2.83611 -0.37500
2.83889 -0.37500
2.84167 -0.38000
2.84444 -0.39000
2.84722 -0.39000
2.85000 -0.36500
2.85278 -0.37000
2.85556 -0.37500
2.85833 -0.38500
2.86111 -0.39000
2.86389 -0.39000
2.86667 -0.37500
2.86944 -0.36500
2.87222 -0.38500
2.87500 -0.38000
2.87778 -0.39000
2.88056 -0.37500
2.88333 -0.37500
2.88611 -0.36500
2.88889 -0.37000
2.89167 -0.38500
2.89444 -0.39500
2.89722 -0.38500
2.90000 -0.38500
2.90278 -0.37000
2.90556 -0.36500
2.90833 -0.37000
2.91111 -0.37500
2.91389 -0.35000
2.91667 -0.33500
2.91944 -0.32000
2.92222 -0.31500
2.92500 -0.32000
2.92778 -0.32500
2.93056 -0.31500
2.93333 -0.29500
2.93611 -0.28500
2.93889 -0.30000
2.94167 -0.29500
2.94444 -0.28500
2.94722 -0.28500
2.95000 -0.28000
2.95278 -0.27000
2.95556 -0.28000
2.95833 -0.29000
2.96111 -0.29500
2.96389 -0.29500
2.96667 -0.29000
2.96944 -0.28000
2.97222 -0.29000
2.97500 -0.29500
2.97778 -0.31000
2.98056 -0.29500
2.98333 -0.28500
2.98611 -0.28000
2.98889 -0.27500
2.99167 -0.29500
2.99444 -0.30500
2.99722 -0.30000
3.00000 -0.29500
3.00278 -0.29500
3.00556 -0.28500
3.00833 -0.30000
3.01111 -0.30500
3.01389 -0.30000
3.01667 -0.29500
3.01944 -0.30000
3.02222 -0.30500
3.02500 -0.31500
3.02778 -0.31000
3.03056 -0.31500
3.03333 -0.29500
3.03611 -0.30000
3.03889 -0.31000
3.04167 -0.33000
3.04444 -0.34000
3.04722 -0.33000
3.05000 -0.32000
3.05278 -0.32000
3.05556 -0.31500
3.05833 -0.32500
3.06111 -0.33500
3.06389 -0.33000
3.06667 -0.31500
3.06944 -0.32000
3.07222 -0.32000
3.07500 -0.33000
3.07778 -0.34500
3.08056 -0.34000
3.08333 -0.33500
3.08611 -0.33000
3.08889 -0.33500
3.09167 -0.34500
3.09444 -0.35000
3.09722 -0.34500
3.10000 -0.34000
3.10278 -0.33500
3.10556 -0.33500
3.10833 -0.33000
3.11111 -0.33500
3.11389 -0.34000
3.11667 -0.33500
3.11944 -0.32000
3.12222 -0.34000
3.12500 -0.34000
3.12778 -0.35000
3.13056 -0.36500
3.13333 -0.36000
3.13611 -0.34500
3.13889 -0.34500
3.14167 -0.35000
3.14444 -0.35000
3.14722 -0.35000
3.15000 -0.34000
3.15278 -0.34000
3.15556 -0.34500
3.15833 -0.34500
3.16111 -0.38000
3.16389 -0.36000
3.16667 -0.36000
3.16944 -0.34500
3.17222 -0.34500
3.17500 -0.35000
3.17778 -0.35500
3.18056 -0.34500
3.18333 -0.33000
3.18611 -0.33000
3.18889 -0.33500
3.19167 -0.33500
3.19444 -0.34000
3.19722 -0.33000
3.20000 -0.32000
3.20278 -0.29000
3.20556 -0.29000
3.20833 -0.30000
3.21111 -0.30500
3.21389 -0.28500
3.21667 -0.28000
3.21944 -0.27500
3.22222 -0.28000
3.22500 -0.27500
3.22778 -0.27000
3.23056 -0.26500
3.23333 -0.25000
3.23611 -0.23000
3.23889 -0.24500
3.24167 -0.24000
3.24444 -0.25500
3.24722 -0.25500
3.25000 -0.24500
3.25278 -0.23500
3.25556 -0.25500
3.25833 -0.26500
3.26111 -0.26000
3.26389 -0.25500
3.26667 -0.27000
3.26944 -0.26500
3.27222 -0.28000
3.27500 -0.25500
3.27778 -0.25000
3.28056 -0.24500
3.28333 -0.26500
3.28611 -0.28000
3.28889 -0.30000
3.29167 -0.31500
3.29444 -0.32500
3.29722 -0.33500
3.30000 -0.34500
3.30278 -0.33000
3.30556 -0.33500
3.30833 -0.34500
3.31111 -0.36000
3.31389 -0.35000
3.31667 -0.34000
3.31944 -0.33500
3.32222 -0.34500
3.32500 -0.36000
3.32778 -0.36500
3.33056 -0.37500
3.33333 -0.37000
3.33611 -0.36500
3.33889 -0.36500
3.34167 -0.38000
3.34444 -0.37500
3.34722 -0.37500
3.35000 -0.36500
3.35278 -0.37000
3.35556 -0.36000
3.35833 -0.37000
3.36111 -0.38000
3.36389 -0.36500
3.36667 -0.36000
3.36944 -0.35000
3.37222 -0.35500
3.37500 -0.37000
3.37778 -0.38500
3.38056 -0.39500
3.38333 -0.43000
3.38611 -0.44500
3.38889 -0.48500
3.39167 -0.51500
3.39444 -0.56500
3.39722 -0.55500
3.40000 -0.47500
3.40278 -0.35500
3.40556 -0.22000
3.40833 -0.05500
3.41111 0.18500
3.41389 0.47500
3.41667 0.70500
3.41944 0.82000
3.42222 0.78000
3.42500 0.53500
3.42778 0.14500
3.43056 -0.20000
3.43333 -0.42000
3.43611 -0.50000
3.43889 -0.48000
3.44167 -0.45000
3.44444 -0.41000
3.44722 -0.40000
3.45000 -0.39000
3.45278 -0.39000
3.45556 -0.40000
3.45833 -0.40500
3.46111 -0.42500
3.46389 -0.42500
3.46667 -0.40500
3.46944 -0.39500
3.47222 -0.40500
3.47500 -0.40500
3.47778 -0.41500
3.48056 -0.40500
3.48333 -0.38500
3.48611 -0.39000
3.48889 -0.39500
3.49167 -0.39500
3.49444 -0.39500
3.49722 -0.39500
3.50000 -0.38500
3.50278 -0.39000
3.50556 -0.39000
3.50833 -0.40000
3.51111 -0.42500
3.51389 -0.41000
3.51667 -0.40000
3.51944 -0.39500
3.52222 -0.40000
3.52500 -0.40500
3.52778 -0.42500
3.53056 -0.41500
3.53333 -0.40500
3.53611 -0.40500
3.53889 -0.40500
3.54167 -0.41000
3.54444 -0.41500
3.54722 -0.40500
3.55000 -0.42000
3.55278 -0.40500
3.55556 -0.41000
3.55833 -0.41000
3.56111 -0.42000
3.56389 -0.41500
3.56667 -0.40500
3.56944 -0.39500
3.57222 -0.39500
3.57500 -0.39500
3.57778 -0.40000
3.58056 -0.39500
3.58333 -0.39500
3.58611 -0.40500
3.58889 -0.40500
3.59167 -0.42000
3.59444 -0.43500
3.59722 -0.41500
3.60000 -0.40500
3.60278 -0.39500
3.60556 -0.39000
3.60833 -0.41500
3.61111 -0.40500
3.61389 -0.40500
3.61667 -0.40000
3.61944 -0.39500
3.62222 -0.39500
3.62500 -0.40500
3.62778 -0.42000
3.63056 -0.41500
3.63333 -0.40000
3.63611 -0.39500
3.63889 -0.40000
3.64167 -0.40500
3.64444 -0.42500
3.64722 -0.42500
3.65000 -0.42500
3.65278 -0.42000
3.65556 -0.42500
3.65833 -0.45000
3.66111 -0.44500
3.66389 -0.45000
3.66667 -0.43500
3.66944 -0.44500
3.67222 -0.47000
3.67500 -0.45500
3.67778 -0.46000
3.68056 -0.44000
3.68333 -0.43500
3.68611 -0.42500
3.68889 -0.43000
3.69167 -0.44500
3.69444 -0.45000
3.69722 -0.44500
3.70000 -0.43000
3.70278 -0.42000
3.70556 -0.41000
3.70833 -0.42500
3.71111 -0.42000
3.71389 -0.40500
3.71667 -0.38000
3.71944 -0.37000
3.72222 -0.36500
3.72500 -0.36500
3.72778 -0.36500
3.73056 -0.34500
3.73333 -0.33000
3.73611 -0.31500
3.73889 -0.30500
3.74167 -0.30500
3.74444 -0.32000
3.74722 -0.31000
3.75000 -0.31000
3.75278 -0.30500
3.75556 -0.31000
3.75833 -0.31500
3.76111 -0.32000
3.76389 -0.31500
3.76667 -0.30500
3.76944 -0.30500
3.77222 -0.29500
3.77500 -0.31000
3.77778 -0.32000
3.78056 -0.31000
3.78333 -0.31500
3.78611 -0.29500
3.78889 -0.30000
3.79167 -0.30500
3.79444 -0.30000
3.79722 -0.28500
3.80000 -0.28000
3.80278 -0.29000
3.80556 -0.29500
3.80833 -0.30500
3.81111 -0.32500
3.81389 -0.30500
3.81667 -0.30000
3.81944 -0.30000
3.82222 -0.31500
3.82500 -0.32500
3.82778 -0.33500
3.83056 -0.32500
3.83333 -0.31500
3.83611 -0.32000
3.83889 -0.33500
3.84167 -0.33000
3.84444 -0.34000
3.84722 -0.32500
3.85000 -0.32500
3.85278 -0.32000
3.85556 -0.31500
3.85833 -0.33500
3.86111 -0.33500
3.86389 -0.34500
3.86667 -0.33500
3.86944 -0.32500
3.87222 -0.33000
3.87500 -0.31500
3.87778 -0.33500
3.88056 -0.33000
3.88333 -0.33000
3.88611 -0.33000
3.88889 -0.33000
3.89167 -0.33500
3.89444 -0.34000
3.89722 -0.33000
3.90000 -0.32000
3.90278 -0.31500
3.90556 -0.32500
3.90833 -0.33500
3.91111 -0.35500
3.91389 -0.34500
3.91667 -0.34000
3.91944 -0.33500
3.92222 -0.32000
3.92500 -0.32500
3.92778 -0.35000
3.93056 -0.33000
3.93333 -0.31500
3.93611 -0.31500
3.93889 -0.33000
3.94167 -0.33000
3.94444 -0.33500
3.94722 -0.33500
3.95000 -0.33000
3.95278 -0.33000
3.95556 -0.33000
3.95833 -0.34000
3.96111 -0.34000
3.96389 -0.34000
3.96667 -0.32500
3.96944 -0.32500
3.97222 -0.32500
3.97500 -0.34500
3.97778 -0.35000
3.98056 -0.34000
3.98333 -0.33000
3.98611 -0.32000
3.98889 -0.31000
3.99167 -0.30500
3.99444 -0.30500
3.99722 -0.27500
4.00000 -0.27000
4.00278 -0.25500
4.00556 -0.26000
4.00833 -0.26500
4.01111 -0.26000
4.01389 -0.25000
4.01667 -0.23500
4.01944 -0.23500
4.02222 -0.22000
4.02500 -0.23500
4.02778 -0.23500
4.03056 -0.22000
4.03333 -0.23000
4.03611 -0.22500
4.03889 -0.23500
4.04167 -0.24500
4.04444 -0.25500
4.04722 -0.24000
4.05000 -0.23000
4.05278 -0.23000
4.05556 -0.25000
4.05833 -0.25500
4.06111 -0.25000
4.06389 -0.23000
4.06667 -0.20500
4.06944 -0.19500
4.07222 -0.21000
4.07500 -0.23000
4.07778 -0.27000
4.08056 -0.27000
4.08333 -0.28500
4.08611 -0.28500
4.08889 -0.31000
4.09167 -0.33000
4.09444 -0.34000
4.09722 -0.34000
4.10000 -0.34500
4.10278 -0.35000
4.10556 -0.35000
4.10833 -0.34000
4.11111 -0.35500
4.11389 -0.34500
4.11667 -0.34000
4.11944 -0.34000
4.12222 -0.34500
4.12500 -0.35500
4.12778 -0.37000
4.13056 -0.35500
4.13333 -0.37000
4.13611 -0.34500
4.13889 -0.34000
4.14167 -0.36000
4.14444 -0.38000
4.14722 -0.36000
4.15000 -0.34500
4.15278 -0.35000
4.15556 -0.35000
4.15833 -0.35500
4.16111 -0.38000
4.16389 -0.39000
4.16667 -0.39500
4.16944 -0.42500
4.17222 -0.45500
4.17500 -0.47500
4.17778 -0.51000
4.18056 -0.54500
4.18333 -0.54000
4.18611 -0.49500
4.18889 -0.40500
4.19167 -0.29500
4.19444 -0.16000
4.19722 0.04000
4.20000 0.31500
4.20278 0.59500
4.20556 0.80000
4.20833 0.88500
4.21111 0.79500
4.21389 0.52000
4.21667 0.13000
4.21944 -0.21500
4.22222 -0.42500
4.22500 -0.50000
4.22778 -0.49000
4.23056 -0.45000
4.23333 -0.40000
4.23611 -0.39000
4.23889 -0.39500
4.24167 -0.39500
4.24444 -0.40000
4.24722 -0.39000
4.25000 -0.38000
4.25278 -0.38500
4.25556 -0.38500
4.25833 -0.40000
4.26111 -0.41000
4.26389 -0.41000
4.26667 -0.39000
4.26944 -0.39000
4.27222 -0.40500
4.27500 -0.40500
4.27778 -0.41500
4.28056 -0.41000
4.28333 -0.39500
4.28611 -0.39500
4.28889 -0.40000
4.29167 -0.41500
4.29444 -0.41500
4.29722 -0.41500
4.30000 -0.40000
4.30278 -0.39000
4.30556 -0.39000
4.30833 -0.41000
4.31111 -0.41500
4.31389 -0.40500
4.31667 -0.39500
4.31944 -0.39500
4.32222 -0.39500
4.32500 -0.40500
4.32778 -0.41000
4.33056 -0.41000
4.33333 -0.40000
4.33611 -0.39000
4.33889 -0.39500
4.34167 -0.41000
4.34444 -0.42500
4.34722 -0.41500
4.35000 -0.40500
4.35278 -0.41000
4.35556 -0.40500
4.35833 -0.41500
4.36111 -0.42500
4.36389 -0.42500
4.36667 -0.41000
4.36944 -0.39500
4.37222 -0.39000
4.37500 -0.40000
4.37778 -0.41000
4.38056 -0.41000
4.38333 -0.40000
4.38611 -0.39000
4.38889 -0.41000
4.39167 -0.42000
4.39444 -0.42000
4.39722 -0.41500
4.40000 -0.41500
4.40278 -0.40500
4.40556 -0.42000
4.40833 -0.41500
4.41111 -0.42500
4.41389 -0.41000
4.41667 -0.40000
4.41944 -0.40500
4.42222 -0.40000
4.42500 -0.40000
4.42778 -0.41000
4.43056 -0.40000
4.43333 -0.39500
4.43611 -0.39500
4.43889 -0.40500
4.44167 -0.41000
4.44444 -0.42500
4.44722 -0.42500
4.45000 -0.41000
4.45278 -0.41000
4.45556 -0.42000
4.45833 -0.43000
4.46111 -0.44500
4.46389 -0.44000
4.46667 -0.43500
4.46944 -0.43000
4.47222 -0.43000
4.47500 -0.45000
4.47778 -0.44500
4.48056 -0.44500
4.48333 -0.43500
4.48611 -0.43500
4.48889 -0.44500
4.49167 -0.44000
4.49444 -0.45000
4.49722 -0.43000
4.50000 -0.43000
4.50278 -0.41500
4.50556 -0.40000
4.50833 -0.40000
4.51111 -0.38500
4.51389 -0.36500
4.51667 -0.33500
4.51944 -0.33000
4.52222 -0.32500
4.52500 -0.33000
4.52778 -0.33000
4.53056 -0.31000
4.53333 -0.29500
4.53611 -0.28500
4.53889 -0.29000
4.54167 -0.29000
4.54444 -0.31000
4.54722 -0.29500
4.55000 -0.28500
4.55278 -0.28000
4.55556 -0.30000
4.55833 -0.29000
4.56111 -0.29500
4.56389 -0.29000
4.56667 -0.28000
4.56944 -0.27500
4.57222 -0.27500
4.57500 -0.29000
4.57778 -0.29000
4.58056 -0.28500
4.58333 -0.27000
4.58611 -0.27000
4.58889 -0.27000
4.59167 -0.27500
4.59444 -0.29000
4.59722 -0.28500
4.60000 -0.27500
4.60278 -0.27500
4.60556 -0.29000
4.60833 -0.29500
4.61111 -0.30500
4.61389 -0.29500
4.61667 -0.29500
4.61944 -0.28500
4.62222 -0.29000
4.62500 -0.30000
4.62778 -0.30500
4.63056 -0.31000
4.63333 -0.29500
4.63611 -0.30000
4.63889 -0.30500
4.64167 -0.31000
4.64444 -0.32500
4.64722 -0.32500
4.65000 -0.31500
4.65278 -0.31000
4.65556 -0.31500
4.65833 -0.31500
4.66111 -0.32500
4.66389 -0.32000
4.66667 -0.31000
4.66944 -0.32000
4.67222 -0.31500
4.67500 -0.33000
4.67778 -0.33000
4.68056 -0.32000
4.68333 -0.31000
4.68611 -0.31000
4.68889 -0.31000
4.69167 -0.33000
4.69444 -0.33500
4.69722 -0.33000
4.70000 -0.32000
4.70278 -0.32500
4.70556 -0.32500
4.70833 -0.33000
4.71111 -0.33500
4.71389 -0.33000
4.71667 -0.32500
4.71944 -0.32500
4.72222 -0.32000
4.72500 -0.32500
4.72778 -0.33000
4.73056 -0.32500
4.73333 -0.31500
4.73611 -0.30500
4.73889 -0.32500
4.74167 -0.31500
4.74444 -0.33500
4.74722 -0.33000
4.75000 -0.31000
4.75278 -0.32000
4.75556 -0.33000
4.75833 -0.33000
4.76111 -0.33500
4.76389 -0.33000
4.76667 -0.33000
4.76944 -0.32000
4.77222 -0.32000
4.77500 -0.33000
4.77778 -0.33000
4.78056 -0.32500
4.78333 -0.31500
4.78611 -0.31500
4.78889 -0.31500
4.79167 -0.33000
4.79444 -0.33000
4.79722 -0.32000
4.80000 -0.31500
4.80278 -0.30500
4.80556 -0.30500
4.80833 -0.29500
4.81111 -0.31500
4.81389 -0.30000
4.81667 -0.27500
4.81944 -0.25500
4.82222 -0.25500
4.82500 -0.26000
4.82778 -0.26500
4.83056 -0.25500
4.83333 -0.23500
4.83611 -0.23000
4.83889 -0.22500
4.84167 -0.22000
4.84444 -0.22000
4.84722 -0.21500
4.85000 -0.20000
4.85278 -0.20500
4.85556 -0.20500
4.85833 -0.22500
4.86111 -0.23500
4.86389 -0.24000
4.86667 -0.23000
4.86944 -0.21500
4.87222 -0.24000
4.87500 -0.24000
4.87778 -0.25000
4.88056 -0.23500
4.88333 -0.21000
4.88611 -0.20000
4.88889 -0.22000
4.89167 -0.25500
4.89444 -0.27500
4.89722 -0.28500
4.90000 -0.30000
4.90278 -0.30500
4.90556 -0.32000
4.90833 -0.33000
4.91111 -0.32500
4.91389 -0.32000
4.91667 -0.33000
4.91944 -0.33000
4.92222 -0.33500
4.92500 -0.34000
4.92778 -0.34500
4.93056 -0.34000
4.93333 -0.33500
4.93611 -0.32000
4.93889 -0.32500
4.94167 -0.33500
4.94444 -0.34500
4.94722 -0.34500
4.95000 -0.34500
4.95278 -0.33500
4.95556 -0.34000
4.95833 -0.34500
4.96111 -0.35500
4.96389 -0.34000
4.96667 -0.34000
4.96944 -0.34000
4.97222 -0.34000
4.97500 -0.34500
4.97778 -0.35500
4.98056 -0.36500
4.98333 -0.37000
4.98611 -0.40500
4.98889 -0.44500
4.99167 -0.48000
4.99444 -0.49500
4.99722 -0.52000
5.00000 -0.53500
5.00278 -0.50500
5.00556 -0.41500
5.00833 -0.28000
5.01111 -0.13500
5.01389 0.06500
5.01667 0.30000
5.01944 0.58000
5.02222 0.81000
5.02500 0.94500
5.02778 0.92000
5.03056 0.77500
5.03333 0.44500
5.03611 0.02000
5.03889 -0.29500
5.04167 -0.44500
5.04444 -0.47000
5.04722 -0.42500
5.05000 -0.38000
5.05278 -0.36000
5.05556 -0.36000
5.05833 -0.37000
5.06111 -0.38000
5.06389 -0.38000
5.06667 -0.37500
5.06944 -0.37000
5.07222 -0.36500
5.07500 -0.37000
5.07778 -0.38500
5.08056 -0.38500
5.08333 -0.37500
5.08611 -0.37000
5.08889 -0.37000
5.09167 -0.38500
5.09444 -0.39500
5.09722 -0.38500
5.10000 -0.38500
5.10278 -0.39000
5.10556 -0.38500
5.10833 -0.39500
5.11111 -0.41000
5.11389 -0.40000
5.11667 -0.39500
5.11944 -0.38000
5.12222 -0.39500
5.12500 -0.39500
5.12778 -0.40000
5.13056 -0.40000
5.13333 -0.39500
5.13611 -0.39000
5.13889 -0.39000
5.14167 -0.39500
5.14444 -0.40500
5.14722 -0.39000
5.15000 -0.38500
5.15278 -0.37500
5.15556 -0.37500
5.15833 -0.38000
5.16111 -0.39000
5.16389 -0.38500
5.16667 -0.37000
5.16944 -0.37000
5.17222 -0.37000
5.17500 -0.37500
5.17778 -0.38500
5.18056 -0.37000
5.18333 -0.39000
5.18611 -0.37500
5.18889 -0.37000
5.19167 -0.38000
5.19444 -0.39000
5.19722 -0.39000
5.20000 -0.38500
5.20278 -0.37500
5.20556 -0.37500
5.20833 -0.38500
5.21111 -0.39500
5.21389 -0.39000
5.21667 -0.38500
5.21944 -0.37500
5.22222 -0.38000
5.22500 -0.38500
5.22778 -0.39000
5.23056 -0.38000
5.23333 -0.38000
5.23611 -0.37000
5.23889 -0.37000
5.24167 -0.36500
5.24444 -0.39000
5.24722 -0.36500
5.25000 -0.36500
5.25278 -0.36000
5.25556 -0.37500
5.25833 -0.38000
5.26111 -0.40000
5.26389 -0.39000
5.26667 -0.37500
5.26944 -0.37500
5.27222 -0.37000
5.27500 -0.38500
5.27778 -0.39000
5.28056 -0.39000
5.28333 -0.39000
5.28611 -0.39000
5.28889 -0.37500
5.29167 -0.38500
5.29444 -0.39500
5.29722 -0.38000
5.30000 -0.37000
5.30278 -0.37500
5.30556 -0.37500
5.30833 -0.39000
5.31111 -0.40500
5.31389 -0.37500
5.31667 -0.37000
5.31944 -0.36000
5.32222 -0.37500
5.32500 -0.38500
5.32778 -0.38000
5.33056 -0.37000
5.33333 -0.36000
5.33611 -0.34500
5.33889 -0.34500
5.34167 -0.33000
5.34444 -0.33000
5.34722 -0.31500
5.35000 -0.31000
5.35278 -0.29500
5.35556 -0.28500
5.35833 -0.28500
5.36111 -0.29500
5.36389 -0.28000
5.36667 -0.27000
5.36944 -0.28000
5.37222 -0.28000
5.37500 -0.28000
5.37778 -0.29000
5.38056 -0.29000
5.38333 -0.28000
5.38611 -0.27500
5.38889 -0.28000
5.39167 -0.28500
5.39444 -0.29000
5.39722 -0.29000
5.40000 -0.28000
5.40278 -0.28000
5.40556 -0.28500
5.40833 -0.29000
5.41111 -0.30000
5.41389 -0.29500
5.41667 -0.28500
5.41944 -0.28000
5.42222 -0.28500
5.42500 -0.28500
5.42778 -0.29500
5.43056 -0.28500
5.43333 -0.28000
5.43611 -0.27500
5.43889 -0.28000
5.44167 -0.29000
5.44444 -0.31000
5.44722 -0.30500
5.45000 -0.28500
5.45278 -0.27000
5.45556 -0.27000
5.45833 -0.27500
5.46111 -0.28500
5.46389 -0.28500
5.46667 -0.27000
5.46944 -0.26500
5.47222 -0.26500
5.47500 -0.26500
5.47778 -0.28000
5.48056 -0.26500
5.48333 -0.24500
5.48611 -0.23500
5.48889 -0.23500
5.49167 -0.25000
5.49444 -0.25000
5.49722 -0.24500
5.50000 -0.21500
5.50278 -0.22000
5.50556 -0.24500
5.50833 -0.25500
5.51111 -0.23000
5.51389 -0.20500
5.51667 -0.21000
5.51944 -0.22000
5.52222 -0.23000
5.52500 -0.24000
5.52778 -0.24000
5.53056 -0.24500
5.53333 -0.25000
5.53611 -0.27000
5.53889 -0.28500
5.54167 -0.31500
5.54444 -0.32000
5.54722 -0.32000
5.55000 -0.31000
5.55278 -0.33000
5.55556 -0.34000
5.55833 -0.34500
5.56111 -0.36000
5.56389 -0.36500
5.56667 -0.36000
5.56944 -0.35000
5.57222 -0.35500
5.57500 -0.37500
5.57778 -0.38500
5.58056 -0.37500
5.58333 -0.37000
5.58611 -0.36500
5.58889 -0.36500
5.59167 -0.37000
5.59444 -0.38000
5.59722 -0.36000
5.60000 -0.35000
5.60278 -0.35500
5.60556 -0.35500
5.60833 -0.35000
5.61111 -0.36500
5.61389 -0.35000
5.61667 -0.35000
5.61944 -0.34000
5.62222 -0.35500
5.62500 -0.35000
5.62778 -0.37500
5.63056 -0.36500
5.63333 -0.37500
5.63611 -0.40000
5.63889 -0.43000
5.64167 -0.47500
5.64444 -0.52000
5.64722 -0.52000
5.65000 -0.55000
5.65278 -0.57000
5.65556 -0.54000
5.65833 -0.44500
5.66111 -0.30500
5.66389 -0.14000
5.66667 0.02500
5.66944 0.26000
5.67222 0.51000
5.67500 0.73500
5.67778 0.84500
5.68056 0.87500
5.68333 0.73500
5.68611 0.40000
5.68889 -0.02500
5.69167 -0.33500
5.69444 -0.48000
5.69722 -0.47000
5.70000 -0.41500
5.70278 -0.37500
5.70556 -0.36500
5.70833 -0.38500
5.71111 -0.40000
5.71389 -0.38000
5.71667 -0.39000
5.71944 -0.37500
5.72222 -0.38500
5.72500 -0.39500
5.72778 -0.40500
5.73056 -0.39000
5.73333 -0.38000
5.73611 -0.38500
5.73889 -0.38500
5.74167 -0.39500
5.74444 -0.40000
5.74722 -0.40500
5.75000 -0.40000
5.75278 -0.39000
5.75556 -0.39000
5.75833 -0.39500
5.76111 -0.40000
5.76389 -0.39000
5.76667 -0.38500
5.76944 -0.39000
5.77222 -0.38500
5.77500 -0.41000
5.77778 -0.42000
5.78056 -0.40500
5.78333 -0.41000
5.78611 -0.39000
5.78889 -0.39000
5.79167 -0.39000
5.79444 -0.40000
5.79722 -0.40000
5.80000 -0.39000
5.80278 -0.37500
5.80556 -0.38000
5.80833 -0.39500
5.81111 -0.40000
5.81389 -0.39000
5.81667 -0.40000
5.81944 -0.39000
5.82222 -0.39500
5.82500 -0.41000
5.82778 -0.41500
5.83056 -0.40500
5.83333 -0.38500
5.83611 -0.38500
5.83889 -0.38000
5.84167 -0.40000
5.84444 -0.40000
5.84722 -0.39500
5.85000 -0.39000
5.85278 -0.38000
5.85556 -0.37500
5.85833 -0.39500
5.86111 -0.39500
5.86389 -0.38500
5.86667 -0.38000
5.86944 -0.37500
5.87222 -0.38500
5.87500 -0.39000
5.87778 -0.40000
5.88056 -0.40000
5.88333 -0.38500
5.88611 -0.38000
5.88889 -0.39500
5.89167 -0.39000
5.89444 -0.40000
5.89722 -0.39500
5.90000 -0.38500
5.90278 -0.38000
5.90556 -0.38500
5.90833 -0.39500
5.91111 -0.40500
5.91389 -0.40000
5.91667 -0.39000
5.91944 -0.38000
5.92222 -0.38000
5.92500 -0.38500
5.92778 -0.40500
5.93056 -0.39500
5.93333 -0.40000
5.93611 -0.39000
5.93889 -0.40000
5.94167 -0.40500
5.94444 -0.42500
5.94722 -0.42000
5.95000 -0.40500
5.95278 -0.40000
5.95556 -0.40500
5.95833 -0.40500
5.96111 -0.41500
5.96389 -0.40000
5.96667 -0.39000
5.96944 -0.38000
5.97222 -0.38500
5.97500 -0.39500
5.97778 -0.40500
5.98056 -0.39000
5.98333 -0.37000
5.98611 -0.37000
5.98889 -0.37000
5.99167 -0.38500
5.99444 -0.37000
5.99722 -0.35500
6.00000 -0.34500
6.00278 -0.34000
6.00556 -0.33500
6.00833 -0.34000
6.01111 -0.35500
6.01389 -0.33500
6.01667 -0.32500
6.01944 -0.31000
6.02222 -0.30500
6.02500 -0.30500
6.02778 -0.32000
6.03056 -0.31500
6.03333 -0.31000
6.03611 -0.30500
6.03889 -0.30500
6.04167 -0.33000
6.04444 -0.32500
6.04722 -0.34500
6.05000 -0.32500
6.05278 -0.31500
6.05556 -0.31500
6.05833 -0.30500
6.06111 -0.31000
6.06389 -0.31000
6.06667 -0.30000
6.06944 -0.30500
6.07222 -0.30500
6.07500 -0.31500
6.07778 -0.32000
6.08056 -0.32500
6.08333 -0.31500
6.08611 -0.30500
6.08889 -0.31500
6.09167 -0.32500
6.09444 -0.32500
6.09722 -0.33000
6.10000 -0.31500
6.10278 -0.31500
6.10556 -0.31000
6.10833 -0.33000
6.11111 -0.34000
6.11389 -0.33500
6.11667 -0.33000
6.11944 -0.34500
6.12222 -0.35500
6.12500 -0.36500
6.12778 -0.37000
6.13056 -0.34500
6.13333 -0.34000
6.13611 -0.34000
6.13889 -0.34500
6.14167 -0.36000
6.14444 -0.36500
6.14722 -0.36000
6.15000 -0.36000
6.15278 -0.34500
6.15556 -0.35500
6.15833 -0.36500
6.16111 -0.35000
6.16389 -0.36000
6.16667 -0.35000
6.16944 -0.34000
6.17222 -0.34500
6.17500 -0.35500
6.17778 -0.37000
6.18056 -0.35000
6.18333 -0.35000
6.18611 -0.35000
6.18889 -0.34500
6.19167 -0.35000
6.19444 -0.35500
6.19722 -0.36000
6.20000 -0.34500
6.20278 -0.35500
6.20556 -0.35000
6.20833 -0.36000
6.21111 -0.37000
6.21389 -0.35500
6.21667 -0.35500
6.21944 -0.35000
6.22222 -0.35500
6.22500 -0.36000
6.22778 -0.39000
6.23056 -0.38500
6.23333 -0.36000
6.23611 -0.36000
6.23889 -0.37000
6.24167 -0.37000
6.24444 -0.39000
6.24722 -0.37500
6.25000 -0.37000
6.25278 -0.35000
6.25556 -0.34000
6.25833 -0.34500
6.26111 -0.36000
6.26389 -0.36000
6.26667 -0.35000
6.26944 -0.35000
6.27222 -0.33500
6.27500 -0.36000
6.27778 -0.36500
6.28056 -0.36500
6.28333 -0.36000
6.28611 -0.36000
6.28889 -0.36500
6.29167 -0.37500
6.29444 -0.38500
6.29722 -0.38500
6.30000 -0.36500
6.30278 -0.37000
6.30556 -0.37500
6.30833 -0.37000
6.31111 -0.37500
6.31389 -0.36500
6.31667 -0.35500
6.31944 -0.35500
6.32222 -0.36000
6.32500 -0.36500
6.32778 -0.37000
6.33056 -0.36000
6.33333 -0.35000
6.33611 -0.34000
6.33889 -0.34500
6.34167 -0.34000
6.34444 -0.35000
6.34722 -0.34500
6.35000 -0.35000
6.35278 -0.36000
6.35556 -0.35000
6.35833 -0.36000
6.36111 -0.37000
6.36389 -0.36000
6.36667 -0.36000
6.36944 -0.35500
6.37222 -0.36000
6.37500 -0.37500
6.37778 -0.37500
6.38056 -0.37000
6.38333 -0.35000
6.38611 -0.35500
6.38889 -0.36000
6.39167 -0.36500
6.39444 -0.37500
6.39722 -0.37000
6.40000 -0.36500
6.40278 -0.36000
6.40556 -0.35500
6.40833 -0.36000
6.41111 -0.36000
6.41389 -0.35000
6.41667 -0.34000
6.41944 -0.34500
6.42222 -0.34500
6.42500 -0.35500
6.42778 -0.36000
6.43056 -0.36000
6.43333 -0.36500
6.43611 -0.34500
6.43889 -0.35500
6.44167 -0.35000
6.44444 -0.36000
6.44722 -0.35500
6.45000 -0.36000
6.45278 -0.34500
6.45556 -0.33500
6.45833 -0.33000
6.46111 -0.33000
6.46389 -0.31000
6.46667 -0.30500
6.46944 -0.30000
6.47222 -0.30500
6.47500 -0.29500
6.47778 -0.30500
6.48056 -0.28500
6.48333 -0.27500
6.48611 -0.26500
6.48889 -0.25500
6.49167 -0.25500
6.49444 -0.26000
6.49722 -0.26500
6.50000 -0.25500
6.50278 -0.25500
6.50556 -0.26000
6.50833 -0.28000
6.51111 -0.29000
6.51389 -0.28000
6.51667 -0.27000
6.51944 -0.25500
6.52222 -0.27500
6.52500 -0.29000
6.52778 -0.32000
6.53056 -0.30000
6.53333 -0.29500
6.53611 -0.27000
6.53889 -0.26500
6.54167 -0.27000
6.54444 -0.28500
6.54722 -0.30000
6.55000 -0.31000
6.55278 -0.31500
6.55556 -0.32000
6.55833 -0.35000
6.56111 -0.37000
6.56389 -0.36500
6.56667 -0.36500
6.56944 -0.36500
6.57222 -0.37000
6.57500 -0.37000
6.57778 -0.37000
6.58056 -0.38000
6.58333 -0.36000
6.58611 -0.37500
6.58889 -0.37500
6.59167 -0.40000
6.59444 -0.42000
6.59722 -0.40500
6.60000 -0.40000
6.60278 -0.38500
6.60556 -0.38000
6.60833 -0.40000
6.61111 -0.41500
6.61389 -0.40500
6.61667 -0.39500
6.61944 -0.39500
6.62222 -0.39500
6.62500 -0.41000
6.62778 -0.43000
6.63056 -0.44000
6.63333 -0.45500
6.63611 -0.49000
6.63889 -0.48500
6.64167 -0.52000
6.64444 -0.57000
6.64722 -0.57500
6.65000 -0.52500
6.65278 -0.42000
6.65556 -0.30500
6.65833 -0.19000
6.66111 -0.02000
6.66389 0.22000
6.66667 0.48500
6.66944 0.71500
6.67222 0.84500
6.67500 0.88500
6.67778 0.79000
6.68056 0.56000
6.68333 0.22500
6.68611 -0.07000
6.68889 -0.28500
6.69167 -0.42500
6.69444 -0.50000
6.69722 -0.55000
6.70000 -0.53500
6.70278 -0.50000
6.70556 -0.46500
6.70833 -0.45000
6.71111 -0.45000
6.71389 -0.43500
6.71667 -0.42000
6.71944 -0.41000
6.72222 -0.41000
6.72500 -0.41500
6.72778 -0.42000
6.73056 -0.42500
6.73333 -0.42000
6.73611 -0.43000
6.73889 -0.43000
6.74167 -0.44000
6.74444 -0.45000
6.74722 -0.45000
6.75000 -0.43000
6.75278 -0.43000
6.75556 -0.43000
6.75833 -0.44500
6.76111 -0.44500
6.76389 -0.44000
6.76667 -0.42500
6.76944 -0.43000
6.77222 -0.43000
6.77500 -0.42500
6.77778 -0.44500
6.78056 -0.44500
6.78333 -0.43000
6.78611 -0.43500
6.78889 -0.43500
6.79167 -0.44500
6.79444 -0.44500
6.79722 -0.43500
6.80000 -0.43000
6.80278 -0.42500
6.80556 -0.43000
6.80833 -0.43000
6.81111 -0.44000
6.81389 -0.42000
6.81667 -0.43000
6.81944 -0.42500
6.82222 -0.43000
6.82500 -0.44000
6.82778 -0.44000
6.83056 -0.43000
6.83333 -0.43000
6.83611 -0.41500
6.83889 -0.42500
6.84167 -0.43000
6.84444 -0.45500
6.84722 -0.44500
6.85000 -0.44500
6.85278 -0.43000
6.85556 -0.43000
6.85833 -0.44000
6.86111 -0.44000
6.86389 -0.43500
6.86667 -0.43000
6.86944 -0.41500
6.87222 -0.41500
6.87500 -0.42500
6.87778 -0.42500
6.88056 -0.42000
6.88333 -0.40500
6.88611 -0.40500
6.88889 -0.41500
6.89167 -0.41500
6.89444 -0.42500
6.89722 -0.43000
6.90000 -0.40500
6.90278 -0.40500
6.90556 -0.40500
6.90833 -0.40500
6.91111 -0.43000
6.91389 -0.41500
6.91667 -0.41000
6.91944 -0.41500
6.92222 -0.43000
6.92500 -0.44500
6.92778 -0.46500
6.93056 -0.46000
6.93333 -0.45000
6.93611 -0.45500
6.93889 -0.46000
6.94167 -0.46500
6.94444 -0.48500
6.94722 -0.49500
6.95000 -0.47500
6.95278 -0.49000
6.95556 -0.50000
6.95833 -0.49500
6.96111 -0.51500
6.96389 -0.50000
6.96667 -0.48500
6.96944 -0.49000
6.97222 -0.48500
6.97500 -0.50000
6.97778 -0.50000
6.98056 -0.49000
6.98333 -0.48000
6.98611 -0.46000
6.98889 -0.46000
6.99167 -0.47000
6.99444 -0.46500
6.99722 -0.44000
7.00000 -0.43000
7.00278 -0.42500
7.00556 -0.41000
7.00833 -0.41000
7.01111 -0.40000
7.01389 -0.39000
7.01667 -0.38000
7.01944 -0.35500
7.02222 -0.35000
7.02500 -0.35500
7.02778 -0.35000
7.03056 -0.34000
7.03333 -0.33000
7.03611 -0.32500
7.03889 -0.30500
7.04167 -0.32000
7.04444 -0.31500
7.04722 -0.30500
7.05000 -0.30000
7.05278 -0.30500
7.05556 -0.30500
7.05833 -0.31000
7.06111 -0.33000
7.06389 -0.31000
7.06667 -0.31500
7.06944 -0.31500
7.07222 -0.32000
7.07500 -0.32500
7.07778 -0.32500
7.08056 -0.32500
7.08333 -0.31000
7.08611 -0.31000
7.08889 -0.31500
7.09167 -0.32500
7.09444 -0.33000
7.09722 -0.32500
7.10000 -0.32500
7.10278 -0.31500
7.10556 -0.32000
7.10833 -0.33000
7.11111 -0.33500
7.11389 -0.33000
7.11667 -0.31500
7.11944 -0.32000
7.12222 -0.32000
7.12500 -0.33500
7.12778 -0.33500
7.13056 -0.32500
7.13333 -0.32500
7.13611 -0.32000
7.13889 -0.32000
7.14167 -0.32500
7.14444 -0.35000
7.14722 -0.34500
7.15000 -0.34500
7.15278 -0.33500
7.15556 -0.34500
7.15833 -0.35500
7.16111 -0.35500
7.16389 -0.35500
7.16667 -0.34500
7.16944 -0.33500
7.17222 -0.33500
7.17500 -0.34500
7.17778 -0.35500
7.18056 -0.34000
7.18333 -0.33500
7.18611 -0.33000
7.18889 -0.33500
7.19167 -0.34500
7.19444 -0.35000
7.19722 -0.35000
7.20000 -0.34000
7.20278 -0.33500
7.20556 -0.33000
7.20833 -0.36000
7.21111 -0.35500
7.21389 -0.34500
7.21667 -0.33500
7.21944 -0.34500
7.22222 -0.35000
7.22500 -0.36000
7.22778 -0.38000
7.23056 -0.37000
7.23333 -0.34500
7.23611 -0.34500
7.23889 -0.35000
7.24167 -0.35500
7.24444 -0.36500
7.24722 -0.36000
7.25000 -0.34500
7.25278 -0.34500
7.25556 -0.35000
7.25833 -0.36000
7.26111 -0.36000
7.26389 -0.35000
7.26667 -0.35500
7.26944 -0.34000
7.27222 -0.34500
7.27500 -0.35500
7.27778 -0.35500
7.28056 -0.35500
7.28333 -0.34000
7.28611 -0.34000
7.28889 -0.34500
7.29167 -0.36500
7.29444 -0.37000
7.29722 -0.35000
7.30000 -0.33000
7.30278 -0.32000
7.30556 -0.31500
7.30833 -0.29500
7.31111 -0.30500
7.31389 -0.29500
7.31667 -0.30000
7.31944 -0.28500
7.32222 -0.27500
7.32500 -0.26000
7.32778 -0.27500
7.33056 -0.26500
7.33333 -0.26000
7.33611 -0.25000
7.33889 -0.24500
7.34167 -0.25500
7.34444 -0.26500
7.34722 -0.26000
7.35000 -0.26000
7.35278 -0.25000
7.35556 -0.26000
7.35833 -0.28000
7.36111 -0.28000
7.36389 -0.27500
7.36667 -0.28500
7.36944 -0.28000
7.37222 -0.25500
7.37500 -0.24500
7.37778 -0.24500
7.38056 -0.26000
7.38333 -0.28500
7.38611 -0.29000
7.38889 -0.30000
7.39167 -0.32000
7.39444 -0.33500
7.39722 -0.35500
7.40000 -0.35000
7.40278 -0.35500
7.40556 -0.35500
7.40833 -0.37500
7.41111 -0.38500
7.41389 -0.38000
7.41667 -0.36000
7.41944 -0.35000
7.42222 -0.36000
7.42500 -0.36500
7.42778 -0.37000
7.43056 -0.37000
7.43333 -0.36500
7.43611 -0.36000
7.43889 -0.36500
7.44167 -0.37000
7.44444 -0.38500
7.44722 -0.38500
7.45000 -0.36500
7.45278 -0.36000
7.45556 -0.38000
7.45833 -0.38500
7.46111 -0.39500
7.46389 -0.39500
7.46667 -0.38500
7.46944 -0.38000
7.47222 -0.39500
7.47500 -0.42500
7.47778 -0.46500
7.48056 -0.50000
7.48333 -0.51500
7.48611 -0.53000
7.48889 -0.56000
7.49167 -0.58500
7.49444 -0.53000
7.49722 -0.41000
7.50000 -0.25500
7.50278 -0.10500
7.50556 0.10500
7.50833 0.35500
7.51111 0.60000
7.51389 0.81000
7.51667 0.89000
7.51944 0.83000
7.52222 0.58000
7.52500 0.18500
7.52778 -0.20500
7.53056 -0.45000
7.53333 -0.52500
7.53611 -0.49500
7.53889 -0.46500
7.54167 -0.43500
7.54444 -0.41500
7.54722 -0.41500
7.55000 -0.41500
7.55278 -0.40000
7.55556 -0.39500
7.55833 -0.40500
7.56111 -0.42500
7.56389 -0.43500
7.56667 -0.41500
7.56944 -0.41500
7.57222 -0.41500
7.57500 -0.41500
7.57778 -0.43000
7.58056 -0.42000
7.58333 -0.41000
7.58611 -0.40500
7.58889 -0.42000
7.59167 -0.41000
7.59444 -0.42000
7.59722 -0.40000
7.60000 -0.39500
7.60278 -0.38500
7.60556 -0.40000
7.60833 -0.40000
7.61111 -0.40000
7.61389 -0.40000
7.61667 -0.39500
7.61944 -0.40000
7.62222 -0.40000
7.62500 -0.40000
7.62778 -0.41000
7.63056 -0.39500
7.63333 -0.41000
7.63611 -0.40000
7.63889 -0.39500
7.64167 -0.40500
7.64444 -0.41000
7.64722 -0.41500
7.65000 -0.40500
7.65278 -0.40000
7.65556 -0.39500
7.65833 -0.40500
7.66111 -0.41500
7.66389 -0.40500
7.66667 -0.41500
7.66944 -0.41000
7.67222 -0.40500
7.67500 -0.40500
7.67778 -0.41000
7.68056 -0.40500
7.68333 -0.40000
7.68611 -0.39500
7.68889 -0.40500
7.69167 -0.40500
7.69444 -0.40000
7.69722 -0.39500
7.70000 -0.39000
7.70278 -0.39500
7.70556 -0.39000
7.70833 -0.39500
7.71111 -0.42000
7.71389 -0.41500
7.71667 -0.40500
7.71944 -0.40000
7.72222 -0.40000
7.72500 -0.41500
7.72778 -0.42000
7.73056 -0.41000
7.73333 -0.39500
7.73611 -0.40000
7.73889 -0.40500
7.74167 -0.41500
7.74444 -0.43500
7.74722 -0.41500
7.75000 -0.41500
7.75278 -0.40000
7.75556 -0.40500
7.75833 -0.42000
7.76111 -0.43000
7.76389 -0.42500
7.76667 -0.41000
7.76944 -0.41000
7.77222 -0.40500
7.77500 -0.41500
7.77778 -0.42500
7.78056 -0.42500
7.78333 -0.42000
7.78611 -0.41000
7.78889 -0.41000
7.79167 -0.42000
7.79444 -0.43000
7.79722 -0.42500
7.80000 -0.42000
7.80278 -0.40500
7.80556 -0.41500
7.80833 -0.41000
7.81111 -0.41000
7.81389 -0.38500
7.81667 -0.37000
7.81944 -0.36000
7.82222 -0.35000
7.82500 -0.35000
7.82778 -0.35000
7.83056 -0.33500
7.83333 -0.32000
7.83611 -0.30500
7.83889 -0.31500
7.84167 -0.31500
7.84444 -0.32000
7.84722 -0.30500
7.85000 -0.30500
7.85278 -0.29500
7.85556 -0.29000
7.85833 -0.29500
7.86111 -0.29500
7.86389 -0.28500
7.86667 -0.28500
7.86944 -0.27000
7.87222 -0.28000
7.87500 -0.28000
7.87778 -0.29500
7.88056 -0.28000
7.88333 -0.28500
7.88611 -0.27500
7.88889 -0.28500
7.89167 -0.29500
7.89444 -0.30500
7.89722 -0.29500
7.90000 -0.28500
7.90278 -0.28500
7.90556 -0.29000
7.90833 -0.30000
7.91111 -0.31000
7.91389 -0.29500
7.91667 -0.30000
7.91944 -0.29000
7.92222 -0.28500
7.92500 -0.30500
7.92778 -0.31000
7.93056 -0.30000
7.93333 -0.29500
7.93611 -0.30500
7.93889 -0.30000
7.94167 -0.30500
7.94444 -0.32000
7.94722 -0.32000
7.95000 -0.31000
7.95278 -0.30000
7.95556 -0.31000
7.95833 -0.32000
7.96111 -0.34000
7.96389 -0.33000
7.96667 -0.31000
7.96944 -0.31500
7.97222 -0.32500
7.97500 -0.32500
7.97778 -0.34500
7.98056 -0.33000
7.98333 -0.32000
7.98611 -0.32000
7.98889 -0.33500
7.99167 -0.33500
7.99444 -0.35500
7.99722 -0.34000
8.00000 -0.32000
8.00278 -0.31500
8.00556 -0.33000
8.00833 -0.34000
8.01111 -0.34000
8.01389 -0.35000
8.01667 -0.33000
8.01944 -0.33000
8.02222 -0.34000
8.02500 -0.35000
8.02778 -0.35500
8.03056 -0.34500
8.03333 -0.33500
8.03611 -0.33500
8.03889 -0.34000
8.04167 -0.34000
8.04444 -0.34500
8.04722 -0.33500
8.05000 -0.33500
8.05278 -0.32500
8.05556 -0.32500
8.05833 -0.33500
8.06111 -0.34000
8.06389 -0.34000
8.06667 -0.32000
8.06944 -0.31500
8.07222 -0.32000
8.07500 -0.33500
8.07778 -0.33500
8.08056 -0.32000
8.08333 -0.32500
8.08611 -0.31500
8.08889 -0.32000
8.09167 -0.32000
8.09444 -0.34500
8.09722 -0.33500
8.10000 -0.32000
8.10278 -0.31000
8.10556 -0.32000
8.10833 -0.32000
8.11111 -0.34000
8.11389 -0.33000
8.11667 -0.32000
8.11944 -0.31000
8.12222 -0.31000
8.12500 -0.31000
8.12778 -0.29500
8.13056 -0.28000
8.13333 -0.25500
8.13611 -0.25000
8.13889 -0.25000
8.14167 -0.25500
8.14444 -0.26000
8.14722 -0.24000
8.15000 -0.22000
8.15278 -0.23000
8.15556 -0.23000
8.15833 -0.21500
8.16111 -0.22000
8.16389 -0.22500
8.16667 -0.23000
8.16944 -0.23000
8.17222 -0.23500
8.17500 -0.24500
8.17778 -0.25500
8.18056 -0.24000
8.18333 -0.23500
8.18611 -0.24500
8.18889 -0.23500
8.19167 -0.23000
8.19444 -0.22000
8.19722 -0.19500
8.20000 -0.22000
8.20278 -0.24500
8.20556 -0.26000
8.20833 -0.27000
8.21111 -0.29000
8.21389 -0.30000
8.21667 -0.30500
8.21944 -0.30500
8.22222 -0.32000
8.22500 -0.33000
8.22778 -0.35000
8.23056 -0.35000
8.23333 -0.33500
8.23611 -0.33500
8.23889 -0.33500
8.24167 -0.34000
8.24444 -0.35000
8.24722 -0.35000
8.25000 -0.34500
8.25278 -0.33500
8.25556 -0.34500
8.25833 -0.35500
8.26111 -0.37000
8.26389 -0.35000
8.26667 -0.34500
8.26944 -0.33500
8.27222 -0.33500
8.27500 -0.33500
8.27778 -0.35500
8.28056 -0.35500
8.28333 -0.34500
8.28611 -0.35500
8.28889 -0.39500
8.29167 -0.45000
8.29444 -0.48000
8.29722 -0.50500
8.30000 -0.52500
8.30278 -0.54500
8.30556 -0.50000
8.30833 -0.39500
8.31111 -0.25500
8.31389 -0.07000
8.31667 0.14500
8.31944 0.42500
8.32222 0.68500
8.32500 0.87500
8.32778 0.92500
8.33056 0.79500
8.33333 0.47000
8.33611 0.02000
8.33889 -0.32500
8.34167 -0.47000
8.34444 -0.48500
8.34722 -0.41000
8.35000 -0.36500
8.35278 -0.35500
8.35556 -0.36500
8.35833 -0.38000
8.36111 -0.38500
8.36389 -0.38000
8.36667 -0.37000
8.36944 -0.37000
8.37222 -0.37500
8.37500 -0.38500
8.37778 -0.39500
8.38056 -0.38500
8.38333 -0.38000
8.38611 -0.38500
8.38889 -0.37500
8.39167 -0.39000
8.39444 -0.40500
8.39722 -0.40500
8.40000 -0.39000
8.40278 -0.38500
8.40556 -0.38500
8.40833 -0.39000
8.41111 -0.41000
8.41389 -0.40000
8.41667 -0.39000
8.41944 -0.38500
8.42222 -0.38500
8.42500 -0.39500
8.42778 -0.39000
8.43056 -0.39500
8.43333 -0.38000
8.43611 -0.37500
8.43889 -0.38000
8.44167 -0.38500
8.44444 -0.40000
8.44722 -0.38500
8.45000 -0.38000
8.45278 -0.37500
8.45556 -0.38000
8.45833 -0.39500
8.46111 -0.39500
8.46389 -0.38500
8.46667 -0.37500
8.46944 -0.37000
8.47222 -0.36500
8.47500 -0.38500
8.47778 -0.39500
8.48056 -0.38500
8.48333 -0.38500
8.48611 -0.37000
8.48889 -0.37500
8.49167 -0.37000
8.49444 -0.37500
8.49722 -0.37500
8.50000 -0.37000
8.50278 -0.35500
8.50556 -0.36500
8.50833 -0.38000
8.51111 -0.37500
8.51389 -0.37000
8.51667 -0.38000
8.51944 -0.36500
8.52222 -0.37000
8.52500 -0.37500
8.52778 -0.39000
8.53056 -0.38000
8.53333 -0.37500
8.53611 -0.38000
8.53889 -0.37000
8.54167 -0.37500
8.54444 -0.38000
8.54722 -0.38500
8.55000 -0.38500
8.55278 -0.37000
8.55556 -0.37500
8.55833 -0.37500
8.56111 -0.38000
8.56389 -0.38000
8.56667 -0.38000
8.56944 -0.38000
8.57222 -0.37500
8.57500 -0.39000
8.57778 -0.39500
8.58056 -0.38500
8.58333 -0.38500
8.58611 -0.37500
8.58889 -0.37500
8.59167 -0.38500
8.59444 -0.38500
8.59722 -0.39000
8.60000 -0.37000
8.60278 -0.36500
8.60556 -0.36500
8.60833 -0.37500
8.61111 -0.38500
8.61389 -0.35000
8.61667 -0.34500
8.61944 -0.32500
8.62222 -0.32500
8.62500 -0.33000
8.62778 -0.32500
8.63056 -0.32500
8.63333 -0.31500
8.63611 -0.31500
8.63889 -0.31500
8.64167 -0.30000
8.64444 -0.30000
8.64722 -0.28500
8.65000 -0.27000
8.65278 -0.26500
8.65556 -0.26000
8.65833 -0.27500
8.66111 -0.28500
8.66389 -0.26500
8.66667 -0.25500
8.66944 -0.25000
8.67222 -0.27000
8.67500 -0.28000
8.67778 -0.28500
8.68056 -0.28500
8.68333 -0.28000
8.68611 -0.27000
8.68889 -0.27000
8.69167 -0.27000
8.69444 -0.28500
8.69722 -0.28000
8.70000 -0.27500
8.70278 -0.27000
8.70556 -0.26500
8.70833 -0.27500
8.71111 -0.29000
8.71389 -0.28500
8.71667 -0.28500
8.71944 -0.27500
8.72222 -0.27000
8.72500 -0.28000
8.72778 -0.29500
8.73056 -0.28000
8.73333 -0.27000
8.73611 -0.27000
8.73889 -0.27500
8.74167 -0.28500
8.74444 -0.30000
8.74722 -0.29500
8.75000 -0.29000
8.75278 -0.29500
8.75556 -0.30000
8.75833 -0.29000
8.76111 -0.30500
8.76389 -0.29500
8.76667 -0.29000
8.76944 -0.29500
8.77222 -0.29000
8.77500 -0.31000
8.77778 -0.32000
8.78056 -0.31500
8.78333 -0.31500
8.78611 -0.30000
8.78889 -0.30500
8.79167 -0.31500
8.79444 -0.33000
8.79722 -0.32000
8.80000 -0.30500
8.80278 -0.31500
8.80556 -0.30500
8.80833 -0.31500
8.81111 -0.32500
8.81389 -0.31000
8.81667 -0.29500
8.81944 -0.30000
8.82222 -0.30500
8.82500 -0.31000
8.82778 -0.32500
8.83056 -0.31500
8.83333 -0.31500
8.83611 -0.30500
8.83889 -0.30500
8.84167 -0.32500
8.84444 -0.32000
8.84722 -0.32000
8.85000 -0.31000
8.85278 -0.30500
8.85556 -0.32000
8.85833 -0.32000
8.86111 -0.32000
8.86389 -0.31000
8.86667 -0.30500
8.86944 -0.29000
8.87222 -0.28500
8.87500 -0.29000
8.87778 -0.30500
8.88056 -0.31000
8.88333 -0.30000
8.88611 -0.30000
8.88889 -0.31000
8.89167 -0.31500
8.89444 -0.31500
8.89722 -0.31000
8.90000 -0.29500
8.90278 -0.30000
8.90556 -0.29500
8.90833 -0.31500
8.91111 -0.31000
8.91389 -0.29000
8.91667 -0.26500
8.91944 -0.24000
8.92222 -0.25500
8.92500 -0.24000
8.92778 -0.25000
8.93056 -0.22500
8.93333 -0.22500
8.93611 -0.21500
8.93889 -0.21000
8.94167 -0.20000
8.94444 -0.19500
8.94722 -0.19500
8.95000 -0.18000
8.95278 -0.17500
8.95556 -0.18000
8.95833 -0.20500
8.96111 -0.21500
8.96389 -0.21000
8.96667 -0.21000
8.96944 -0.21000
8.97222 -0.21000
8.97500 -0.21500
8.97778 -0.22500
8.98056 -0.21000
8.98333 -0.18000
8.98611 -0.17000
8.98889 -0.18500
8.99167 -0.24000
8.99444 -0.25500
8.99722 -0.25500
9.00000 -0.27000
9.00278 -0.27500
9.00556 -0.28500
9.00833 -0.30000
9.01111 -0.30000
9.01389 -0.31500
9.01667 -0.30500
9.01944 -0.30000
9.02222 -0.29500
9.02500 -0.30000
9.02778 -0.31500
9.03056 -0.31000
9.03333 -0.31000
9.03611 -0.30000
9.03889 -0.30000
9.04167 -0.30500
9.04444 -0.31500
9.04722 -0.32500
9.05000 -0.32000
9.05278 -0.32000
9.05556 -0.32000
9.05833 -0.32500
9.06111 -0.34000
9.06389 -0.33500
9.06667 -0.32500
9.06944 -0.31500
9.07222 -0.32000
9.07500 -0.34500
9.07778 -0.37000
9.08056 -0.39500
9.08333 -0.42500
9.08611 -0.44500
9.08889 -0.46500
9.09167 -0.51000
9.09444 -0.53000
9.09722 -0.48500
9.10000 -0.37000
9.10278 -0.23500
9.10556 -0.09000
9.10833 0.10500
9.11111 0.37500
9.11389 0.65500
9.11667 0.82000
9.11944 0.86500
9.12222 0.73500
9.12500 0.45000
9.12778 0.06000
9.13056 -0.27000
9.13333 -0.43000
9.13611 -0.46000
9.13889 -0.41500
9.14167 -0.38500
9.14444 -0.36500
9.14722 -0.35500
9.15000 -0.35500
9.15278 -0.34500
9.15556 -0.35000
9.15833 -0.35000
9.16111 -0.36000
9.16389 -0.34500
9.16667 -0.34000
9.16944 -0.34000
9.17222 -0.33500
9.17500 -0.33500
9.17778 -0.35500
9.18056 -0.34500
9.18333 -0.34000
9.18611 -0.33500
9.18889 -0.34000
9.19167 -0.35000
9.19444 -0.36500
9.19722 -0.36000
9.20000 -0.36500
9.20278 -0.35000
9.20556 -0.34500
9.20833 -0.36500
9.21111 -0.36000
9.21389 -0.35000
9.21667 -0.35500
9.21944 -0.35000
9.22222 -0.35500
9.22500 -0.35000
9.22778 -0.36000
9.23056 -0.33500
9.23333 -0.33500
9.23611 -0.33000
9.23889 -0.34000
9.24167 -0.35000
9.24444 -0.35000
9.24722 -0.34500
9.25000 -0.33500
9.25278 -0.34500
9.25556 -0.35500
9.25833 -0.35500
9.26111 -0.37000
9.26389 -0.35500
9.26667 -0.35000
9.26944 -0.34500
9.27222 -0.36500
9.27500 -0.36500
9.27778 -0.37000
9.28056 -0.36500
9.28333 -0.35500
9.28611 -0.34500
9.28889 -0.34500
9.29167 -0.34500
9.29444 -0.34000
9.29722 -0.33500
9.30000 -0.32500
9.30278 -0.33500
9.30556 -0.34500
9.30833 -0.35000
9.31111 -0.35000
9.31389 -0.35500
9.31667 -0.35500
9.31944 -0.36000
9.32222 -0.35000
9.32500 -0.36000
9.32778 -0.36500
9.33056 -0.34500
9.33333 -0.34500
9.33611 -0.33000
9.33889 -0.35000
9.34167 -0.34500
9.34444 -0.35500
9.34722 -0.35000
9.35000 -0.34000
9.35278 -0.33500
9.35556 -0.35000
9.35833 -0.36500
9.36111 -0.38000
9.36389 -0.38500
9.36667 -0.35500
9.36944 -0.36000
9.37222 -0.35500
9.37500 -0.37000
9.37778 -0.38500
9.38056 -0.37000
9.38333 -0.37000
9.38611 -0.35000
9.38889 -0.34500
9.39167 -0.36500
9.39444 -0.36500
9.39722 -0.36000
9.40000 -0.34500
9.40278 -0.33000
9.40556 -0.33000
9.40833 -0.33000
9.41111 -0.33500
9.41389 -0.31500
9.41667 -0.31000
9.41944 -0.28500
9.42222 -0.29000
9.42500 -0.29000
9.42778 -0.30000
9.43056 -0.28000
9.43333 -0.27500
9.43611 -0.26000
9.43889 -0.26000
9.44167 -0.27000
9.44444 -0.26500
9.44722 -0.25500
9.45000 -0.25000
9.45278 -0.24500
9.45556 -0.24500
9.45833 -0.25500
9.46111 -0.26500
9.46389 -0.26000
9.46667 -0.25500
9.46944 -0.24000
9.47222 -0.25000
9.47500 -0.25500
9.47778 -0.27500
9.48056 -0.27500
9.48333 -0.26500
9.48611 -0.27000
9.48889 -0.27500
9.49167 -0.28000
9.49444 -0.29000
9.49722 -0.28000
9.50000 -0.27500
9.50278 -0.27000
9.50556 -0.27000
9.50833 -0.28000
9.51111 -0.29000
9.51389 -0.28000
9.51667 -0.28500
9.51944 -0.27500
9.52222 -0.29000
9.52500 -0.28000
9.52778 -0.29000
9.53056 -0.28000
9.53333 -0.28500
9.53611 -0.27500
9.53889 -0.28000
9.54167 -0.29500
9.54444 -0.30500
9.54722 -0.30000
9.55000 -0.30000
9.55278 -0.30500
9.55556 -0.31500
9.55833 -0.32000
9.56111 -0.31000
9.56389 -0.31000
9.56667 -0.30000
9.56944 -0.31000
9.57222 -0.31000
9.57500 -0.32000
9.57778 -0.32500
9.58056 -0.31000
9.58333 -0.32000
9.58611 -0.31000
9.58889 -0.31000
9.59167 -0.31500
9.59444 -0.32500
9.59722 -0.31500
9.60000 -0.30500
9.60278 -0.31500
9.60556 -0.31000
9.60833 -0.32000
9.61111 -0.32500
9.61389 -0.32500
9.61667 -0.32000
9.61944 -0.30500
9.62222 -0.30500
9.62500 -0.30000
9.62778 -0.31500
9.63056 -0.30000
9.63333 -0.31000
9.63611 -0.31500
9.63889 -0.30500
9.64167 -0.31000
9.64444 -0.32000
9.64722 -0.31000
9.65000 -0.30000
9.65278 -0.29500
9.65556 -0.30000
9.65833 -0.31500
9.66111 -0.32500
9.66389 -0.32500
9.66667 -0.30500
9.66944 -0.31000
9.67222 -0.29000
9.67500 -0.31500
9.67778 -0.32500
9.68056 -0.32000
9.68333 -0.29000
9.68611 -0.28000
9.68889 -0.26000
9.69167 -0.26000
9.69444 -0.26500
9.69722 -0.26000
9.70000 -0.25000
9.70278 -0.23000
9.70556 -0.22000
9.70833 -0.22000
9.71111 -0.23500
9.71389 -0.22000
9.71667 -0.20500
9.71944 -0.20500
9.72222 -0.21000
9.72500 -0.21000
9.72778 -0.23000
9.73056 -0.24000
9.73333 -0.23000
9.73611 -0.22500
9.73889 -0.23500
9.74167 -0.25000
9.74444 -0.26500
9.74722 -0.26000
9.75000 -0.24500
9.75278 -0.21500
9.75556 -0.21500
9.75833 -0.24500
9.76111 -0.28000
9.76389 -0.27500
9.76667 -0.27500
9.76944 -0.29500
9.77222 -0.31000
9.77500 -0.32500
9.77778 -0.34000
9.78056 -0.34000
9.78333 -0.32500
9.78611 -0.31500
9.78889 -0.31000
9.79167 -0.31500
9.79444 -0.33000
9.79722 -0.33000
9.80000 -0.32500
9.80278 -0.32500
9.80556 -0.33500
9.80833 -0.34500
9.81111 -0.35000
9.81389 -0.35000
9.81667 -0.35000
9.81944 -0.34500
9.82222 -0.35000
9.82500 -0.36500
9.82778 -0.36000
9.83056 -0.35000
9.83333 -0.35500
9.83611 -0.34500
9.83889 -0.34500
9.84167 -0.35000
9.84444 -0.36500
9.84722 -0.38000
9.85000 -0.40500
9.85278 -0.42500
9.85556 -0.44000
9.85833 -0.47000
9.86111 -0.52000
9.86389 -0.54000
9.86667 -0.49000
9.86944 -0.39000
9.87222 -0.26000
9.87500 -0.11500
9.87778 0.08500
9.88056 0.36000
9.88333 0.61500
9.88611 0.78000
9.88889 0.83500
9.89167 0.72000
9.89444 0.41000
9.89722 0.03000
9.90000 -0.25500
9.90278 -0.41500
9.90556 -0.47000
9.90833 -0.46500
9.91111 -0.43500
9.91389 -0.39500
9.91667 -0.37500
9.91944 -0.37000
9.92222 -0.37500
9.92500 -0.37500
9.92778 -0.39000
9.93056 -0.40000
9.93333 -0.38000
9.93611 -0.38500
9.93889 -0.38500
9.94167 -0.38500
9.94444 -0.38500
9.94722 -0.37000
9.95000 -0.37000
9.95278 -0.36000
9.95556 -0.38000
9.95833 -0.38000
9.96111 -0.38500
9.96389 -0.37000
9.96667 -0.37000
9.96944 -0.36500
9.97222 -0.37500
9.97500 -0.38500
9.97778 -0.39000
9.98056 -0.39000
9.98333 -0.38500
9.98611 -0.38500
9.98889 -0.39500
9.99167 -0.39000
9.99444 -0.40000
9.99722 -0.40500
10.00000 -0.39000
10.00278 -0.39500
10.00556 -0.39000
10.00833 -0.40500
10.01111 -0.40500
10.01389 -0.40000
10.01667 -0.37500
10.01944 -0.38000
10.02222 -0.39000
10.02500 -0.39500
10.02778 -0.39500
10.03056 -0.39000
10.03333 -0.39000
10.03611 -0.38500
10.03889 -0.40500
10.04167 -0.40000
10.04444 -0.40500
10.04722 -0.39500
10.05000 -0.39000
10.05278 -0.39500
10.05556 -0.39000
10.05833 -0.40000
10.06111 -0.40500
10.06389 -0.40500
10.06667 -0.39000
10.06944 -0.39000
10.07222 -0.39500
10.07500 -0.40000
10.07778 -0.40000
10.08056 -0.39500
10.08333 -0.38000
10.08611 -0.37000
10.08889 -0.38000
10.09167 -0.38500
10.09444 -0.39500
10.09722 -0.39000
10.10000 -0.38000
10.10278 -0.38000
10.10556 -0.38500
10.10833 -0.39000
10.11111 -0.39000
10.11389 -0.40000
10.11667 -0.40000
10.11944 -0.40500
10.12222 -0.41500
10.12500 -0.42000
10.12778 -0.43000
10.13056 -0.43000
10.13333 -0.42500
10.13611 -0.42000
10.13889 -0.43000
10.14167 -0.44500
10.14444 -0.46500
10.14722 -0.45500
10.15000 -0.44000
10.15278 -0.42500
10.15556 -0.43500
10.15833 -0.45000
10.16111 -0.44000
10.16389 -0.44500
10.16667 -0.42500
10.16944 -0.42500
10.17222 -0.42500
10.17500 -0.43000
10.17778 -0.43000
10.18056 -0.41500
10.18333 -0.41500
10.18611 -0.38500
10.18889 -0.37500
10.19167 -0.38500
10.19444 -0.37000
10.19722 -0.36000
10.20000 -0.35000
10.20278 -0.33500
10.20556 -0.33500
10.20833 -0.32500
10.21111 -0.32000
10.21389 -0.32500
10.21667 -0.30500
10.21944 -0.29500
10.22222 -0.30000
10.22500 -0.29000
10.22778 -0.29500
10.23056 -0.29000
10.23333 -0.29000
10.23611 -0.28500
10.23889 -0.28500
10.24167 -0.28500
10.24444 -0.29000
10.24722 -0.29000
10.25000 -0.28500
10.25278 -0.27000
10.25556 -0.27000
10.25833 -0.28000
10.26111 -0.29000
10.26389 -0.28500
10.26667 -0.27500
10.26944 -0.27500
10.27222 -0.27500
10.27500 -0.29000
10.27778 -0.30500
10.28056 -0.30500
10.28333 -0.30000
10.28611 -0.28000
10.28889 -0.29000
10.29167 -0.30500
10.29444 -0.31500
10.29722 -0.31000
10.30000 -0.29500
10.30278 -0.29000
10.30556 -0.30000
10.30833 -0.30500
10.31111 -0.30500
10.31389 -0.31000
10.31667 -0.30000
10.31944 -0.29500
10.32222 -0.30500
10.32500 -0.30500
10.32778 -0.31500
10.33056 -0.31000
10.33333 -0.31000
10.33611 -0.29500
10.33889 -0.30000
10.34167 -0.30500
10.34444 -0.31000
10.34722 -0.30500
10.35000 -0.30500
10.35278 -0.29500
10.35556 -0.30000
10.35833 -0.31500
10.36111 -0.32500
10.36389 -0.32000
10.36667 -0.32000
10.36944 -0.31500
10.37222 -0.31000
10.37500 -0.32500
10.37778 -0.33500
10.38056 -0.33000
10.38333 -0.32000
10.38611 -0.32000
10.38889 -0.31000
10.39167 -0.33000
10.39444 -0.33000
10.39722 -0.32500
10.40000 -0.31000
10.40278 -0.30500
10.40556 -0.30500
10.40833 -0.32000
10.41111 -0.33000
10.41389 -0.32500
10.41667 -0.30000
10.41944 -0.31000
10.42222 -0.30500
10.42500 -0.31500
10.42778 -0.33000
10.43056 -0.33000
10.43333 -0.33000
10.43611 -0.32000
10.43889 -0.32500
10.44167 -0.32500
10.44444 -0.33500
10.44722 -0.32500
10.45000 -0.31500
10.45278 -0.31000
10.45556 -0.31500
10.45833 -0.32000
10.46111 -0.32500
10.46389 -0.31500
10.46667 -0.31000
10.46944 -0.30500
10.47222 -0.31000
10.47500 -0.31500
10.47778 -0.32000
10.48056 -0.31500
10.48333 -0.31000
10.48611 -0.29500
10.48889 -0.29500
10.49167 -0.30500
10.49444 -0.31000
10.49722 -0.30000
10.50000 -0.28000
10.50278 -0.27500
10.50556 -0.26500
10.50833 -0.27500
10.51111 -0.27500
10.51389 -0.26000
10.51667 -0.24000
10.51944 -0.24000
10.52222 -0.23500
10.52500 -0.24000
10.52778 -0.23500
10.53056 -0.22500
10.53333 -0.21500
10.53611 -0.20500
10.53889 -0.20500
10.54167 -0.21000
10.54444 -0.21500
10.54722 -0.22000
10.55000 -0.22000
10.55278 -0.21500
10.55556 -0.22000
10.55833 -0.22000
10.56111 -0.23000
10.56389 -0.23000
10.56667 -0.24000
10.56944 -0.21000
10.57222 -0.22000
10.57500 -0.23000
10.57778 -0.25500
10.58056 -0.23500
10.58333 -0.21000
10.58611 -0.19000
10.58889 -0.20500
10.59167 -0.22500
10.59444 -0.26000
10.59722 -0.27500
10.60000 -0.28000
10.60278 -0.28500
10.60556 -0.30500
10.60833 -0.32000
10.61111 -0.31500
10.61389 -0.33500
10.61667 -0.32500
10.61944 -0.33500
10.62222 -0.32000
10.62500 -0.32500
10.62778 -0.32000
10.63056 -0.32500
10.63333 -0.32500
10.63611 -0.31000
10.63889 -0.30500
10.64167 -0.32000
10.64444 -0.32000
10.64722 -0.33000
10.65000 -0.32000
10.65278 -0.32000
10.65556 -0.33000
10.65833 -0.33000
10.66111 -0.36000
10.66389 -0.35500
10.66667 -0.33000
10.66944 -0.32500
10.67222 -0.32500
10.67500 -0.33500
10.67778 -0.35000
10.68056 -0.34000
10.68333 -0.34500
10.68611 -0.35500
10.68889 -0.38500
10.69167 -0.42500
10.69444 -0.45000
10.69722 -0.47000
10.70000 -0.48500
10.70278 -0.51000
10.70556 -0.51500
10.70833 -0.45500
10.71111 -0.32500
10.71389 -0.16500
10.71667 0.01000
10.71944 0.25000
10.72222 0.51500
10.72500 0.74000
10.72778 0.88500
10.73056 0.93500
10.73333 0.83500
10.73611 0.52500
10.73889 0.12000
10.74167 -0.23000
10.74444 -0.42500
10.74722 -0.45500
10.75000 -0.42000
10.75278 -0.38000
10.75556 -0.36000
10.75833 -0.36500
10.76111 -0.37500
10.76389 -0.38000
10.76667 -0.35500
10.76944 -0.35500
10.77222 -0.37000
10.77500 -0.37500
10.77778 -0.38500
10.78056 -0.38000
10.78333 -0.36500
10.78611 -0.37000
10.78889 -0.37000
10.79167 -0.36500
10.79444 -0.38000
10.79722 -0.37000
10.80000 -0.37500
10.80278 -0.36500
10.80556 -0.37000
10.80833 -0.38000
10.81111 -0.37500
10.81389 -0.36500
10.81667 -0.36000
10.81944 -0.36000
10.82222 -0.35500
10.82500 -0.35500
10.82778 -0.37000
10.83056 -0.36500
10.83333 -0.35500
10.83611 -0.35000
10.83889 -0.35000
10.84167 -0.35000
10.84444 -0.36000
10.84722 -0.36000
10.85000 -0.36000
10.85278 -0.35000
10.85556 -0.35500
10.85833 -0.36500
10.86111 -0.37000
10.86389 -0.36000
10.86667 -0.35000
10.86944 -0.35500
10.87222 -0.35000
10.87500 -0.35500
10.87778 -0.37000
10.88056 -0.37500
10.88333 -0.36000
10.88611 -0.35000
10.88889 -0.34500
10.89167 -0.35000
10.89444 -0.37000
10.89722 -0.37000
10.90000 -0.35500
10.90278 -0.35000
10.90556 -0.34500
10.90833 -0.36000
10.91111 -0.37000
10.91389 -0.36500
10.91667 -0.36000
10.91944 -0.35000
10.92222 -0.35500
10.92500 -0.36500
10.92778 -0.36500
10.93056 -0.37000
10.93333 -0.36500
10.93611 -0.35000
10.93889 -0.35000
10.94167 -0.36000
10.94444 -0.36000
10.94722 -0.35500
10.95000 -0.34500
10.95278 -0.35000
10.95556 -0.34500
10.95833 -0.35500
10.96111 -0.37000
10.96389 -0.36500
10.96667 -0.35500
10.96944 -0.36000
10.97222 -0.36500
10.97500 -0.36500
10.97778 -0.38000
10.98056 -0.38500
10.98333 -0.37500
10.98611 -0.37000
10.98889 -0.37500
10.99167 -0.38500
10.99444 -0.39500
10.99722 -0.37500
11.00000 -0.38500
11.00278 -0.38000
11.00556 -0.37000
11.00833 -0.38500
11.01111 -0.38500
11.01389 -0.38000
11.01667 -0.37000
11.01944 -0.36000
11.02222 -0.35000
11.02500 -0.33500
11.02778 -0.33000
11.03056 -0.31500
11.03333 -0.29500
11.03611 -0.29000
11.03889 -0.29000
11.04167 -0.28500
11.04444 -0.29000
11.04722 -0.28000
11.05000 -0.28000
11.05278 -0.26000
11.05556 -0.25500
11.05833 -0.27000
11.06111 -0.27500
11.06389 -0.26000
11.06667 -0.25000
11.06944 -0.24500
11.07222 -0.25000
11.07500 -0.26000
11.07778 -0.26500
11.08056 -0.24500
11.08333 -0.23500
11.08611 -0.24500
11.08889 -0.24000
11.09167 -0.25000
11.09444 -0.26500
11.09722 -0.25000
11.10000 -0.25000
11.10278 -0.25000
11.10556 -0.25000
11.10833 -0.25500
11.11111 -0.26500
11.11389 -0.26000
11.11667 -0.24000
11.11944 -0.25000
11.12222 -0.24500
11.12500 -0.25000
11.12778 -0.27000
11.13056 -0.26500
11.13333 -0.27000
11.13611 -0.26500
11.13889 -0.26500
11.14167 -0.27500
11.14444 -0.28500
11.14722 -0.27500
11.15000 -0.26500
11.15278 -0.27000
11.15556 -0.27000
11.15833 -0.28000
11.16111 -0.28500
11.16389 -0.28500
11.16667 -0.28000
11.16944 -0.28500
11.17222 -0.28000
11.17500 -0.28500
11.17778 -0.30000
11.18056 -0.29000
11.18333 -0.28500
11.18611 -0.27000
11.18889 -0.28000
11.19167 -0.29500
11.19444 -0.29000
11.19722 -0.29000
11.20000 -0.29500
11.20278 -0.29000
11.20556 -0.28500
11.20833 -0.30500
11.21111 -0.31500
11.21389 -0.31000
11.21667 -0.31000
11.21944 -0.29000
11.22222 -0.29500
11.22500 -0.31000
11.22778 -0.32000
11.23056 -0.31500
11.23333 -0.31000
11.23611 -0.30000
11.23889 -0.30000
11.24167 -0.31500
11.24444 -0.32000
11.24722 -0.31500
11.25000 -0.32000
11.25278 -0.29000
11.25556 -0.30000
11.25833 -0.30000
11.26111 -0.31500
11.26389 -0.31000
11.26667 -0.30000
11.26944 -0.30000
11.27222 -0.29000
11.27500 -0.31000
11.27778 -0.32500
11.28056 -0.31500
11.28333 -0.30500
11.28611 -0.30500
11.28889 -0.30500
11.29167 -0.31500
11.29444 -0.32500
11.29722 -0.32000
11.30000 -0.31000
11.30278 -0.30000
11.30556 -0.29500
11.30833 -0.31500
11.31111 -0.32000
11.31389 -0.30500
11.31667 -0.30000
11.31944 -0.29000
11.32222 -0.29500
11.32500 -0.29500
11.32778 -0.31000
11.33056 -0.29500
11.33333 -0.29500
11.33611 -0.28500
11.33889 -0.29500
11.34167 -0.29500
11.34444 -0.31000
11.34722 -0.30000
11.35000 -0.28500
11.35278 -0.28000
11.35556 -0.27500
11.35833 -0.28000
11.36111 -0.26500
11.36389 -0.24500
11.36667 -0.23000
11.36944 -0.24000
11.37222 -0.24000
11.37500 -0.24000
11.37778 -0.24500
11.38056 -0.22000
11.38333 -0.22000
11.38611 -0.21500
11.38889 -0.20000
11.39167 -0.20000
11.39444 -0.21000
11.39722 -0.20500
11.40000 -0.19500
11.40278 -0.20500
11.40556 -0.21000
11.40833 -0.21500
11.41111 -0.22500
11.41389 -0.22500
11.41667 -0.20000
11.41944 -0.20000
11.42222 -0.21000
11.42500 -0.22500
11.42778 -0.22000
11.43056 -0.19500
11.43333 -0.18000
11.43611 -0.17500
11.43889 -0.20500
11.44167 -0.24500
11.44444 -0.26500
11.44722 -0.27500
11.45000 -0.28000
11.45278 -0.28500
11.45556 -0.30000
11.45833 -0.31000
11.46111 -0.32500
11.46389 -0.32000
11.46667 -0.32500
11.46944 -0.31000
11.47222 -0.32500
11.47500 -0.33000
11.47778 -0.34000
11.48056 -0.33500
11.48333 -0.33000
11.48611 -0.32500
11.48889 -0.32000
11.49167 -0.34000
11.49444 -0.34500
11.49722 -0.34000
11.50000 -0.33000
11.50278 -0.33500
11.50556 -0.33000
11.50833 -0.34000
11.51111 -0.34000
11.51389 -0.33500
11.51667 -0.33500
11.51944 -0.33000
11.52222 -0.33500
11.52500 -0.34500
11.52778 -0.37500
11.53056 -0.39500
11.53333 -0.43000
11.53611 -0.44000
11.53889 -0.45000
11.54167 -0.45000
11.54444 -0.47500
11.54722 -0.48000
11.55000 -0.51000
11.55278 -0.55000
11.55556 -0.57500
11.55833 -0.54500
11.56111 -0.49000
11.56389 -0.37500
11.56667 -0.25000
11.56944 -0.12000
11.57222 0.06000
11.57500 0.28500
11.57778 0.52500
11.58056 0.74000
11.58333 0.86000
11.58611 0.89000
11.58889 0.73000
11.59167 0.42500
11.59444 0.01500
11.59722 -0.28500
11.60000 -0.43500
11.60278 -0.45000
11.60556 -0.43500
11.60833 -0.38500
11.61111 -0.38000
11.61389 -0.37000
11.61667 -0.37000
11.61944 -0.37000
11.62222 -0.36000
11.62500 -0.36000
11.62778 -0.37000
11.63056 -0.38500
11.63333 -0.36500
11.63611 -0.36000
11.63889 -0.36500
11.64167 -0.36500
11.64444 -0.37500
11.64722 -0.38500
11.65000 -0.36000
11.65278 -0.36500
11.65556 -0.35500
11.65833 -0.37500
11.66111 -0.38000
11.66389 -0.37500
11.66667 -0.35500
11.66944 -0.35500
11.67222 -0.36000
11.67500 -0.36500
11.67778 -0.38000
11.68056 -0.37000
11.68333 -0.35500
11.68611 -0.35000
11.68889 -0.35500
11.69167 -0.36500
11.69444 -0.38000
11.69722 -0.36500
11.70000 -0.35500
11.70278 -0.35500
11.70556 -0.36500
11.70833 -0.38500
11.71111 -0.39000
11.71389 -0.37500
11.71667 -0.35500
11.71944 -0.36500
11.72222 -0.36000
11.72500 -0.35500
11.72778 -0.36500
11.73056 -0.36500
11.73333 -0.35500
11.73611 -0.34500
11.73889 -0.34500
11.74167 -0.36500
11.74444 -0.36000
11.74722 -0.37500
11.75000 -0.35500
11.75278 -0.36000
11.75556 -0.36500
11.75833 -0.36500
11.76111 -0.37000
11.76389 -0.36000
11.76667 -0.35500
11.76944 -0.36000
11.77222 -0.36500
11.77500 -0.38500
11.77778 -0.38000
11.78056 -0.36500
11.78333 -0.35500
11.78611 -0.33500
11.78889 -0.36000
11.79167 -0.36000
11.79444 -0.38500
11.79722 -0.38000
11.80000 -0.37500
11.80278 -0.36000
11.80556 -0.36000
11.80833 -0.36500
11.81111 -0.37500
11.81389 -0.36500
11.81667 -0.35500
11.81944 -0.36000
11.82222 -0.35000
11.82500 -0.36000
11.82778 -0.37000
11.83056 -0.37000
11.83333 -0.36500
11.83611 -0.37000
11.83889 -0.38000
11.84167 -0.39000
11.84444 -0.38500
11.84722 -0.38000
11.85000 -0.37000
11.85278 -0.37000
11.85556 -0.36500
11.85833 -0.36500
11.86111 -0.39000
11.86389 -0.37500
11.86667 -0.37000
11.86944 -0.35500
11.87222 -0.36500
11.87500 -0.36000
11.87778 -0.37000
11.88056 -0.35000
11.88333 -0.34000
11.88611 -0.32500
11.88889 -0.32000
11.89167 -0.31500
11.89444 -0.32500
11.89722 -0.31000
11.90000 -0.29500
11.90278 -0.28500
11.90556 -0.29000
11.90833 -0.29000
11.91111 -0.27500
11.91389 -0.27000
11.91667 -0.26500
11.91944 -0.26000
11.92222 -0.26000
11.92500 -0.27500
11.92778 -0.27500
11.93056 -0.28500
11.93333 -0.26000
11.93611 -0.26000
11.93889 -0.26500
11.94167 -0.27000
11.94444 -0.28000
11.94722 -0.27500
11.95000 -0.25500
11.95278 -0.25500
11.95556 -0.24500
11.95833 -0.25500
11.96111 -0.26000
11.96389 -0.25500
11.96667 -0.25500
11.96944 -0.26000
11.97222 -0.26500
11.97500 -0.28000
11.97778 -0.29500
11.98056 -0.29000
11.98333 -0.27500
11.98611 -0.28000
11.98889 -0.28000
11.99167 -0.28000
11.99444 -0.28500
11.99722 -0.28500
12.00000 -0.28000
12.00278 -0.27000
12.00556 -0.28500
12.00833 -0.30000
12.01111 -0.31000
12.01389 -0.30000
12.01667 -0.29000
12.01944 -0.28000
12.02222 -0.30000
12.02500 -0.29000
12.02778 -0.31000
12.03056 -0.30000
12.03333 -0.29500
12.03611 -0.29000
12.03889 -0.28500
12.04167 -0.29500
12.04444 -0.32500
12.04722 -0.31500
12.05000 -0.31000
12.05278 -0.30500
12.05556 -0.30000
12.05833 -0.31500
12.06111 -0.33000
12.06389 -0.32000
12.06667 -0.32000
12.06944 -0.31500
12.07222 -0.32000
12.07500 -0.32500
12.07778 -0.33500
12.08056 -0.33000
12.08333 -0.32500
12.08611 -0.31000
12.08889 -0.31500
12.09167 -0.31500
12.09444 -0.33500
12.09722 -0.32000
12.10000 -0.31000
12.10278 -0.31500
12.10556 -0.31000
12.10833 -0.32000
12.11111 -0.33500
12.11389 -0.32500
12.11667 -0.32500
12.11944 -0.31500
12.12222 -0.31000
12.12500 -0.32000
12.12778 -0.33000
12.13056 -0.32000
12.13333 -0.32000
12.13611 -0.31000
12.13889 -0.33000
12.14167 -0.33000
12.14444 -0.34500
12.14722 -0.34000
12.15000 -0.33000
12.15278 -0.32000
12.15556 -0.31500
12.15833 -0.33500
12.16111 -0.33500
12.16389 -0.33000
12.16667 -0.31000
12.16944 -0.31000
12.17222 -0.31500
12.17500 -0.33000
12.17778 -0.32000
12.18056 -0.31500
12.18333 -0.30000
12.18611 -0.28500
12.18889 -0.28000
12.19167 -0.26500
12.19444 -0.26000
12.19722 -0.26500
12.20000 -0.26000
12.20278 -0.25500
12.20556 -0.26000
12.20833 -0.25000
12.21111 -0.25500
12.21389 -0.24000
12.21667 -0.23000
12.21944 -0.20500
12.22222 -0.21000
12.22500 -0.22500
12.22778 -0.23500
12.23056 -0.22500
12.23333 -0.22500
12.23611 -0.23000
12.23889 -0.22500
12.24167 -0.24000
12.24444 -0.24000
12.24722 -0.23000
12.25000 -0.23500
12.25278 -0.25000
12.25556 -0.25000
12.25833 -0.25500
12.26111 -0.23500
12.26389 -0.22000
12.26667 -0.20500
12.26944 -0.21500
12.27222 -0.24000
12.27500 -0.26500
12.27778 -0.28000
12.28056 -0.28000
12.28333 -0.27000
12.28611 -0.27000
12.28889 -0.29000
12.29167 -0.32000
12.29444 -0.33500
12.29722 -0.34000
12.30000 -0.33000
12.30278 -0.33000
12.30556 -0.33500
12.30833 -0.35000
12.31111 -0.36000
12.31389 -0.35000
12.31667 -0.35000
12.31944 -0.34500
12.32222 -0.35000
12.32500 -0.35500
12.32778 -0.36500
12.33056 -0.36000
12.33333 -0.35500
12.33611 -0.35000
12.33889 -0.34000
12.34167 -0.36000
12.34444 -0.37000
12.34722 -0.37000
12.35000 -0.35500
12.35278 -0.34500
12.35556 -0.35000
12.35833 -0.37000
12.36111 -0.38500
12.36389 -0.41000
12.36667 -0.44000
12.36944 -0.46000
12.37222 -0.49000
12.37500 -0.54000
12.37778 -0.56500
12.38056 -0.55000
12.38333 -0.48500
12.38611 -0.36500
12.38889 -0.25500
12.39167 -0.12500
12.39444 0.09000
12.39722 0.36000
12.40000 0.60000
12.40278 0.75000
12.40556 0.79500
12.40833 0.70000
12.41111 0.44000
12.41389 0.09500
12.41667 -0.18500
12.41944 -0.37000
12.42222 -0.47000
12.42500 -0.49000
12.42778 -0.47000
12.43056 -0.44000
12.43333 -0.42500
12.43611 -0.41000
12.43889 -0.41000
12.44167 -0.41000
12.44444 -0.42000
12.44722 -0.40000
12.45000 -0.39500
12.45278 -0.40500
12.45556 -0.41000
12.45833 -0.40500
12.46111 -0.42000
12.46389 -0.39500
12.46667 -0.39500
12.46944 -0.39000
12.47222 -0.39500
12.47500 -0.39500
12.47778 -0.41000
12.48056 -0.40000
12.48333 -0.40000
12.48611 -0.41000
12.48889 -0.40000
12.49167 -0.40500
12.49444 -0.41000
12.49722 -0.41000
12.50000 -0.40000
12.50278 -0.39000
12.50556 -0.39000
12.50833 -0.40000
12.51111 -0.40000
12.51389 -0.39500
12.51667 -0.39000
12.51944 -0.38500
12.52222 -0.39000
12.52500 -0.41000
12.52778 -0.41000
12.53056 -0.41000
12.53333 -0.41500
12.53611 -0.41000
12.53889 -0.40500
12.54167 -0.42000
12.54444 -0.42000
12.54722 -0.42000
12.55000 -0.41500
12.55278 -0.41000
12.55556 -0.41500
12.55833 -0.42500
12.56111 -0.42500
12.56389 -0.42000
12.56667 -0.42500
12.56944 -0.42000
12.57222 -0.41000
12.57500 -0.41000
12.57778 -0.41500
12.58056 -0.41000
12.58333 -0.41000
12.58611 -0.40000
12.58889 -0.40500
12.59167 -0.40500
12.59444 -0.42500
12.59722 -0.42000
12.60000 -0.41000
12.60278 -0.40000
12.60556 -0.40500
12.60833 -0.41500
12.61111 -0.42000
12.61389 -0.41000
12.61667 -0.41000
12.61944 -0.40000
12.62222 -0.41000
12.62500 -0.41500
12.62778 -0.42000
12.63056 -0.41000
12.63333 -0.40000
12.63611 -0.39000
12.63889 -0.40000
12.64167 -0.41500
12.64444 -0.42000
12.64722 -0.41500
12.65000 -0.41500
12.65278 -0.40000
12.65556 -0.41500
12.65833 -0.43000
12.66111 -0.45000
12.66389 -0.44000
12.66667 -0.44000
12.66944 -0.43500
12.67222 -0.43500
12.67500 -0.44000
12.67778 -0.45000
12.68056 -0.43500
12.68333 -0.44000
12.68611 -0.43000
12.68889 -0.44000
12.69167 -0.44500
12.69444 -0.44500
12.69722 -0.44000
12.70000 -0.43500
12.70278 -0.42000
12.70556 -0.41500
12.70833 -0.41000
12.71111 -0.40500
12.71389 -0.38000
12.71667 -0.37500
12.71944 -0.37000
12.72222 -0.37000
12.72500 -0.37000
12.72778 -0.36000
12.73056 -0.35500
12.73333 -0.32500
12.73611 -0.30500
12.73889 -0.31000
12.74167 -0.32000
12.74444 -0.32500
12.74722 -0.32500
12.75000 -0.31500
12.75278 -0.30000
12.75556 -0.30500
12.75833 -0.32000
12.76111 -0.33000
12.76389 -0.33000
12.76667 -0.31000
12.76944 -0.31000
12.77222 -0.31000
12.77500 -0.30500
12.77778 -0.31000
12.78056 -0.32000
12.78333 -0.30500
12.78611 -0.30000
12.78889 -0.30000
12.79167 -0.30500
12.79444 -0.32000
12.79722 -0.32000
12.80000 -0.31500
12.80278 -0.31500
12.80556 -0.31000
12.80833 -0.33000
12.81111 -0.33500
12.81389 -0.33500
12.81667 -0.32000
12.81944 -0.31500
12.82222 -0.31500
12.82500 -0.32500
12.82778 -0.33000
12.83056 -0.33500
12.83333 -0.32000
12.83611 -0.30000
12.83889 -0.30000
12.84167 -0.32000
12.84444 -0.32000
12.84722 -0.33000
12.85000 -0.32000
12.85278 -0.32000
12.85556 -0.32500
12.85833 -0.34000
12.86111 -0.35500
12.86389 -0.34500
12.86667 -0.35000
12.86944 -0.34500
12.87222 -0.34500
12.87500 -0.36000
12.87778 -0.36000
12.88056 -0.34500
12.88333 -0.34000
12.88611 -0.34000
12.88889 -0.35500
12.89167 -0.35000
12.89444 -0.35000
12.89722 -0.35500
12.90000 -0.34000
12.90278 -0.33500
12.90556 -0.34000
12.90833 -0.35000
12.91111 -0.35500
12.91389 -0.35500
12.91667 -0.35500
12.91944 -0.34500
12.92222 -0.34500
12.92500 -0.35000
12.92778 -0.36000
12.93056 -0.36500
12.93333 -0.36500
12.93611 -0.35000
12.93889 -0.35000
12.94167 -0.36000
12.94444 -0.37000
12.94722 -0.36000
12.95000 -0.35000
12.95278 -0.33500
12.95556 -0.35000
12.95833 -0.35000
12.96111 -0.34500
12.96389 -0.34000
12.96667 -0.34000
12.96944 -0.34000
12.97222 -0.34000
12.97500 -0.34500
12.97778 -0.35000
12.98056 -0.36000
12.98333 -0.35000
12.98611 -0.33500
12.98889 -0.34500
12.99167 -0.35000
12.99444 -0.35000
12.99722 -0.35500
13.00000 -0.34000
13.00278 -0.33500
13.00556 -0.33000
13.00833 -0.34000
13.01111 -0.35500
13.01389 -0.35500
13.01667 -0.33000
13.01944 -0.31500
13.02222 -0.31500
13.02500 -0.31500
13.02778 -0.32000
13.03056 -0.30000
13.03333 -0.30000
13.03611 -0.28000
13.03889 -0.26500
13.04167 -0.28000
13.04444 -0.28500
13.04722 -0.26500
13.05000 -0.23500
13.05278 -0.23000
13.05556 -0.23000
13.05833 -0.24500
13.06111 -0.25500
13.06389 -0.25000
13.06667 -0.24500
13.06944 -0.25000
13.07222 -0.25500
13.07500 -0.26500
13.07778 -0.27000
13.08056 -0.29000
13.08333 -0.28000
13.08611 -0.27500
13.08889 -0.26000
13.09167 -0.25500
13.09444 -0.26000
13.09722 -0.27500
13.10000 -0.29500
13.10278 -0.30000
13.10556 -0.30500
13.10833 -0.33500
13.11111 -0.35500
13.11389 -0.35000
13.11667 -0.35000
13.11944 -0.35000
13.12222 -0.35500
13.12500 -0.37000
13.12778 -0.37000
13.13056 -0.36000
13.13333 -0.36500
13.13611 -0.35500
13.13889 -0.36500
13.14167 -0.37500
13.14444 -0.38500
13.14722 -0.38000
13.15000 -0.37500
13.15278 -0.35500
13.15556 -0.37000
13.15833 -0.38500
13.16111 -0.39000
13.16389 -0.39000
13.16667 -0.37000
13.16944 -0.36000
13.17222 -0.37000
13.17500 -0.38000
13.17778 -0.38500
13.18056 -0.38000
13.18333 -0.37500
13.18611 -0.37000
13.18889 -0.38000
13.19167 -0.40500
13.19444 -0.44500
13.19722 -0.46500
13.20000 -0.48000
13.20278 -0.48500
13.20556 -0.52500
13.20833 -0.55500
13.21111 -0.53500
13.21389 -0.45000
13.21667 -0.32500
13.21944 -0.18500
13.22222 -0.02500
13.22500 0.18500
13.22778 0.43000
13.23056 0.66000
13.23333 0.81500
13.23611 0.85000
13.23889 0.75000
13.24167 0.48500
13.24444 0.11000
13.24722 -0.21000
13.25000 -0.39000
13.25278 -0.46000
13.25556 -0.48500
13.25833 -0.47000
13.26111 -0.45000
13.26389 -0.42500
13.26667 -0.41500
13.26944 -0.40500
13.27222 -0.41500
13.27500 -0.41500
13.27778 -0.42000
13.28056 -0.40000
13.28333 -0.39500
13.28611 -0.38500
13.28889 -0.39500
13.29167 -0.40000
13.29444 -0.42000
13.29722 -0.41000
13.30000 -0.40000
13.30278 -0.40000
13.30556 -0.40500
13.30833 -0.40500
13.31111 -0.43500
13.31389 -0.42000
13.31667 -0.41000
13.31944 -0.40500
13.32222 -0.41500
13.32500 -0.43000
13.32778 -0.44000
13.33056 -0.43500
13.33333 -0.41500
13.33611 -0.42000
13.33889 -0.43000
13.34167 -0.41500
13.34444 -0.43000
13.34722 -0.42500
13.35000 -0.42000
13.35278 -0.42000
13.35556 -0.41500
13.35833 -0.42500
13.36111 -0.42500
13.36389 -0.42000
13.36667 -0.41000
13.36944 -0.41000
13.37222 -0.41000
13.37500 -0.42000
13.37778 -0.43000
13.38056 -0.42000
13.38333 -0.41500
13.38611 -0.39500
13.38889 -0.40500
13.39167 -0.41500
13.39444 -0.43000
13.39722 -0.42000
13.40000 -0.42000
13.40278 -0.41500
13.40556 -0.42000
13.40833 -0.42500
13.41111 -0.44000
13.41389 -0.43000
13.41667 -0.42500
13.41944 -0.41500
13.42222 -0.42000
13.42500 -0.42500
13.42778 -0.44000
13.43056 -0.43000
13.43333 -0.43000
13.43611 -0.42500
13.43889 -0.42000
13.44167 -0.41500
13.44444 -0.42500
13.44722 -0.43000
13.45000 -0.42500
13.45278 -0.41500
13.45556 -0.40500
13.45833 -0.40500
13.46111 -0.42500
13.46389 -0.41500
13.46667 -0.42000
13.46944 -0.42000
13.47222 -0.42000
13.47500 -0.43500
13.47778 -0.43500
13.48056 -0.44000
13.48333 -0.42000
13.48611 -0.43000
13.48889 -0.45000
13.49167 -0.45500
13.49444 -0.46500
13.49722 -0.46500
13.50000 -0.46500
13.50278 -0.46500
13.50556 -0.46500
13.50833 -0.47000
13.51111 -0.49000
13.51389 -0.48500
13.51667 -0.46000
13.51944 -0.45500
13.52222 -0.46000
13.52500 -0.45500
13.52778 -0.45500
13.53056 -0.44000
13.53333 -0.42500
13.53611 -0.41500
13.53889 -0.40000
13.54167 -0.40500
13.54444 -0.40000
13.54722 -0.38500
13.55000 -0.36500
13.55278 -0.36500
13.55556 -0.36000
13.55833 -0.37000
13.56111 -0.37500
13.56389 -0.35500
13.56667 -0.34000
13.56944 -0.33000
13.57222 -0.33000
13.57500 -0.33000
13.57778 -0.34000
13.58056 -0.33500
13.58333 -0.32000
13.58611 -0.30500
13.58889 -0.31500
13.59167 -0.32000
13.59444 -0.32000
13.59722 -0.32000
13.60000 -0.31500
13.60278 -0.31000
13.60556 -0.31000
13.60833 -0.31500
13.61111 -0.33000
13.61389 -0.32000
13.61667 -0.32000
13.61944 -0.31000
13.62222 -0.32000
13.62500 -0.33000
13.62778 -0.34000
13.63056 -0.33000
13.63333 -0.32500
13.63611 -0.32500
13.63889 -0.32000
13.64167 -0.34000
13.64444 -0.35000
13.64722 -0.34000
13.65000 -0.32000
13.65278 -0.31500
13.65556 -0.32500
13.65833 -0.34000
13.66111 -0.34500
13.66389 -0.34500
13.66667 -0.34000
13.66944 -0.33000
13.67222 -0.33500
13.67500 -0.34500
13.67778 -0.36000
13.68056 -0.35500
13.68333 -0.34000
13.68611 -0.33000
13.68889 -0.33500
13.69167 -0.34500
13.69444 -0.36500
13.69722 -0.37000
13.70000 -0.35000
13.70278 -0.34000
13.70556 -0.33500
13.70833 -0.36000
13.71111 -0.35500
13.71389 -0.34000
13.71667 -0.33500
13.71944 -0.33500
13.72222 -0.32000
13.72500 -0.33500
13.72778 -0.35500
13.73056 -0.35000
13.73333 -0.34500
13.73611 -0.34000
13.73889 -0.33500
13.74167 -0.35000
13.74444 -0.37000
13.74722 -0.36000
13.75000 -0.35500
13.75278 -0.35000
13.75556 -0.34500
13.75833 -0.36500
13.76111 -0.36000
13.76389 -0.36000
13.76667 -0.35000
13.76944 -0.34500
13.77222 -0.35500
13.77500 -0.35500
13.77778 -0.36500
13.78056 -0.36000
13.78333 -0.34500
13.78611 -0.34500
13.78889 -0.35000
13.79167 -0.35500
13.79444 -0.36000
13.79722 -0.35500
13.80000 -0.35000
13.80278 -0.33500
13.80556 -0.33500
13.80833 -0.35500
13.81111 -0.34500
13.81389 -0.34000
13.81667 -0.33000
13.81944 -0.34000
13.82222 -0.34500
13.82500 -0.35000
13.82778 -0.35500
13.83056 -0.35000
13.83333 -0.33500
13.83611 -0.33000
13.83889 -0.33000
13.84167 -0.33000
13.84444 -0.33000
13.84722 -0.30500
13.85000 -0.28500
13.85278 -0.27500
13.85556 -0.28000
13.85833 -0.28500
13.86111 -0.29000
13.86389 -0.27500
13.86667 -0.26000
13.86944 -0.24500
13.87222 -0.24000
13.87500 -0.24000
13.87778 -0.24000
13.88056 -0.23500
13.88333 -0.22500
13.88611 -0.22000
13.88889 -0.23000
13.89167 -0.24000
13.89444 -0.25500
13.89722 -0.25500
13.90000 -0.24000
13.90278 -0.24000
13.90556 -0.25000
13.90833 -0.27000
13.91111 -0.27000
13.91389 -0.24000
13.91667 -0.23000
13.91944 -0.22500
13.92222 -0.26500
13.92500 -0.29500
13.92778 -0.30500
13.93056 -0.32500
13.93333 -0.31500
13.93611 -0.32500
13.93889 -0.33000
13.94167 -0.34500
13.94444 -0.36000
13.94722 -0.36500
13.95000 -0.35500
13.95278 -0.34500
13.95556 -0.34000
13.95833 -0.33500
13.96111 -0.36000
13.96389 -0.35500
13.96667 -0.34500
13.96944 -0.33500
13.97222 -0.35500
13.97500 -0.35000
13.97778 -0.37500
13.98056 -0.37500
13.98333 -0.36500
13.98611 -0.36500
13.98889 -0.35000
13.99167 -0.37000
13.99444 -0.38000
13.99722 -0.36500
14.00000 -0.37000
14.00278 -0.35500
14.00556 -0.37000
14.00833 -0.38000
14.01111 -0.38500
14.01389 -0.38500
14.01667 -0.40000
14.01944 -0.43000
14.02222 -0.46500
14.02500 -0.48500
14.02778 -0.52000
14.03056 -0.55500
14.03333 -0.52500
14.03611 -0.43500
14.03889 -0.30500
14.04167 -0.15500
14.04444 0.01000
14.04722 0.26000
14.05000 0.53500
14.05278 0.76000
14.05556 0.89000
14.05833 0.90500
14.06111 0.70500
14.06389 0.36000
14.06667 -0.03000
14.06944 -0.32000
14.07222 -0.45500
14.07500 -0.47500
14.07778 -0.44000
14.08056 -0.39500
14.08333 -0.38000
14.08611 -0.38000
14.08889 -0.38500
14.09167 -0.39500
14.09444 -0.40000
14.09722 -0.40500
14.10000 -0.39500
14.10278 -0.41000
14.10556 -0.39000
14.10833 -0.39500
14.11111 -0.40500
14.11389 -0.40500
14.11667 -0.39500
14.11944 -0.38500
14.12222 -0.38500
14.12500 -0.40500
14.12778 -0.40500
14.13056 -0.40000
14.13333 -0.38500
14.13611 -0.38000
14.13889 -0.38500
14.14167 -0.40500
14.14444 -0.41000
14.14722 -0.40000
14.15000 -0.39500
14.15278 -0.38500
14.15556 -0.39500
14.15833 -0.41000
14.16111 -0.40500
14.16389 -0.40500
14.16667 -0.39500
14.16944 -0.39000
14.17222 -0.39500
14.17500 -0.39500
14.17778 -0.40500
14.18056 -0.41000
14.18333 -0.40000
14.18611 -0.38500
14.18889 -0.39500
14.19167 -0.40000
14.19444 -0.39500
14.19722 -0.38500
14.20000 -0.38500
14.20278 -0.37500
14.20556 -0.37500
14.20833 -0.38000
14.21111 -0.39500
14.21389 -0.38500
14.21667 -0.39000
14.21944 -0.38500
14.22222 -0.38000
14.22500 -0.39000
14.22778 -0.40000
14.23056 -0.40000
14.23333 -0.39000
14.23611 -0.36500
14.23889 -0.37500
14.24167 -0.38500
14.24444 -0.40000
14.24722 -0.40000
14.25000 -0.39000
14.25278 -0.38000
14.25556 -0.37500
14.25833 -0.38500
14.26111 -0.39500
14.26389 -0.38000
14.26667 -0.37000
14.26944 -0.36500
14.27222 -0.36500
14.27500 -0.37500
14.27778 -0.38500
14.28056 -0.37500
14.28333 -0.37500
14.28611 -0.36500
14.28889 -0.37000
14.29167 -0.37500
14.29444 -0.40000
14.29722 -0.39500
14.30000 -0.40500
14.30278 -0.37000
14.30556 -0.38500
14.30833 -0.40000
14.31111 -0.41000
14.31389 -0.40000
14.31667 -0.39500
14.31944 -0.37500
14.32222 -0.38000
14.32500 -0.38500
14.32778 -0.40500
14.33056 -0.38500
14.33333 -0.37500
14.33611 -0.37000
14.33889 -0.36500
14.34167 -0.36500
14.34444 -0.35000
14.34722 -0.35500
14.35000 -0.32000
14.35278 -0.31000
14.35556 -0.31000
14.35833 -0.30500
14.36111 -0.31000
14.36389 -0.29000
14.36667 -0.28000
14.36944 -0.28000
14.37222 -0.27000
14.37500 -0.28000
14.37778 -0.28500
14.38056 -0.28000
14.38333 -0.28500
14.38611 -0.26500
14.38889 -0.27000
14.39167 -0.27500
14.39444 -0.29000
14.39722 -0.29000
14.40000 -0.27500
14.40278 -0.27500
14.40556 -0.27000
14.40833 -0.27500
14.41111 -0.29000
14.41389 -0.28500
14.41667 -0.28500
14.41944 -0.26000
14.42222 -0.26000
14.42500 -0.27500
14.42778 -0.28500
14.43056 -0.27500
14.43333 -0.26500
14.43611 -0.27000
14.43889 -0.28000
14.44167 -0.29000
14.44444 -0.29500
14.44722 -0.30000
14.45000 -0.28000
14.45278 -0.28000
14.45556 -0.27500
14.45833 -0.29000
14.46111 -0.30000
14.46389 -0.30500
14.46667 -0.28500
14.46944 -0.28500
14.47222 -0.28500
14.47500 -0.29500
14.47778 -0.30000
14.48056 -0.30000
14.48333 -0.29500
14.48611 -0.28000
14.48889 -0.29500
14.49167 -0.29000
14.49444 -0.30500
14.49722 -0.30500
14.50000 -0.30000
14.50278 -0.28500
14.50556 -0.28500
14.50833 -0.31000
14.51111 -0.31500
14.51389 -0.30500
14.51667 -0.30500
14.51944 -0.29500
14.52222 -0.30000
14.52500 -0.32000
14.52778 -0.33500
14.53056 -0.32000
14.53333 -0.32000
14.53611 -0.31000
14.53889 -0.31500
14.54167 -0.31000
14.54444 -0.33000
14.54722 -0.32000
14.55000 -0.31000
14.55278 -0.30500
14.55556 -0.30500
14.55833 -0.31500
14.56111 -0.31500
14.56389 -0.31500
14.56667 -0.30500
14.56944 -0.30500
14.57222 -0.30000
14.57500 -0.31000
14.57778 -0.31000
14.58056 -0.31000
14.58333 -0.31000
14.58611 -0.29500
14.58889 -0.30000
14.59167 -0.32500
14.59444 -0.32500
14.59722 -0.33000
14.60000 -0.32000
14.60278 -0.31000
14.60556 -0.30500
14.60833 -0.31500
14.61111 -0.33000
14.61389 -0.32000
14.61667 -0.31000
14.61944 -0.30500
14.62222 -0.30000
14.62500 -0.29500
14.62778 -0.32000
14.63056 -0.31000
14.63333 -0.30000
14.63611 -0.27500
14.63889 -0.27000
14.64167 -0.26000
14.64444 -0.25000
14.64722 -0.23500
14.65000 -0.23000
14.65278 -0.22500
14.65556 -0.23000
14.65833 -0.23000
14.66111 -0.24000
14.66389 -0.23000
14.66667 -0.22500
14.66944 -0.20500
14.67222 -0.20500
14.67500 -0.20000
14.67778 -0.21000
14.68056 -0.19500
14.68333 -0.20000
14.68611 -0.19000
14.68889 -0.20000
14.69167 -0.21000
14.69444 -0.22500
14.69722 -0.22500
14.70000 -0.22000
14.70278 -0.22000
14.70556 -0.22000
14.70833 -0.23000
14.71111 -0.25000
14.71389 -0.24500
14.71667 -0.23000
14.71944 -0.20500
14.72222 -0.18500
14.72500 -0.19500
14.72778 -0.22500
14.73056 -0.25000
14.73333 -0.25500
14.73611 -0.26500
14.73889 -0.27500
14.74167 -0.30500
14.74444 -0.32000
14.74722 -0.32500
14.75000 -0.32500
14.75278 -0.33000
14.75556 -0.33000
14.75833 -0.32500
14.76111 -0.33500
14.76389 -0.34000
14.76667 -0.33500
14.76944 -0.32000
14.77222 -0.33500
14.77500 -0.34500
14.77778 -0.35500
14.78056 -0.35000
14.78333 -0.35500
14.78611 -0.35000
14.78889 -0.34500
14.79167 -0.34000
14.79444 -0.35500
14.79722 -0.35000
14.80000 -0.34000
14.80278 -0.34000
14.80556 -0.34000
14.80833 -0.35500
14.81111 -0.40000
14.81389 -0.43500
14.81667 -0.45500
14.81944 -0.47000
14.82222 -0.50000
14.82500 -0.54000
14.82778 -0.54500
14.83056 -0.46500
14.83333 -0.35500
14.83611 -0.21000
14.83889 -0.03500
14.84167 0.18500
14.84444 0.43500
14.84722 0.67500
14.85000 0.82000
14.85278 0.82500
14.85556 0.64000
14.85833 0.32000
14.86111 -0.07000
14.86389 -0.34000
14.86667 -0.44500
14.86944 -0.44500
14.87222 -0.41000
14.87500 -0.38000
14.87778 -0.37500
14.88056 -0.37500
14.88333 -0.37000
14.88611 -0.36500
14.88889 -0.36000
14.89167 -0.37000
14.89444 -0.37500
14.89722 -0.37000
14.90000 -0.36000
14.90278 -0.35000
14.90556 -0.35500
14.90833 -0.36500
14.91111 -0.38000
14.91389 -0.38000
14.91667 -0.37000
14.91944 -0.36500
14.92222 -0.36500
14.92500 -0.38000
14.92778 -0.38500
14.93056 -0.39000
14.93333 -0.38000
14.93611 -0.37500
14.93889 -0.37500
14.94167 -0.38000
14.94444 -0.39000
14.94722 -0.38000
14.95000 -0.37500
14.95278 -0.37000
14.95556 -0.36500
14.95833 -0.37500
14.96111 -0.38500
14.96389 -0.36500
14.96667 -0.36000
14.96944 -0.35000
14.97222 -0.35500
14.97500 -0.35500
14.97778 -0.37000
14.98056 -0.36500
14.98333 -0.35000
14.98611 -0.36000
14.98889 -0.36500
14.99167 -0.36500
14.99444 -0.37500
14.99722 -0.37500
