cas[s]  ekg[mV]
0.00000 0.05054
0.00200 -0.17857
0.00400 -0.01830
0.00600 0.08699
0.00800 -0.07464
0.01000 0.00319
0.01200 0.08999
0.01400 -0.07009
0.01600 0.04864
0.01800 0.11393
0.02000 0.02682
0.02200 0.09775
0.02400 -0.00829
0.02600 -0.02525
0.02800 0.02797
0.03000 -0.08639
0.03200 0.06659
0.03400 0.00267
0.03600 -0.07759
0.03800 0.06792
0.04000 0.04063
0.04200 -0.01963
0.04400 -0.03767
0.04600 0.02253
0.04800 -0.09466
0.05000 -0.06935
0.05200 0.07739
0.05400 0.02175
0.05600 0.07607
0.05800 0.01462
0.06000 0.10467
0.06200 -0.05963
0.06400 0.07702
0.06600 0.06261
0.06800 0.07625
0.07000 0.10358
0.07200 -0.01391
0.07400 0.01003
0.07600 0.12974
0.07800 0.08610
0.08000 0.06904
0.08200 -0.07609
0.08400 0.12517
0.08600 0.03935
0.08800 0.06475
0.09000 -0.09542
0.09200 0.02820
0.09400 -0.13185
0.09600 0.05585
0.09800 0.00942
0.10000 0.02257
0.10200 -0.05135
0.10400 0.02691
0.10600 -0.00112
0.10800 -0.09582
0.11000 0.02431
0.11200 -0.00615
0.11400 -0.08258
0.11600 0.06758
0.11800 -0.07682
0.12000 -0.03997
0.12200 -0.10934
0.12400 -0.09834
0.12600 0.03218
0.12800 0.15117
0.13000 -0.03103
0.13200 -0.00989
0.13400 -0.01245
0.13600 0.06985
0.13800 0.15352
0.14000 0.03020
0.14200 -0.00223
0.14400 0.06956
0.14600 0.05121
0.14800 -0.00672
0.15000 0.01350
0.15200 -0.04573
0.15400 0.01430
0.15600 -0.07808
0.15800 0.09660
0.16000 0.09619
0.16200 -0.12399
0.16400 -0.12277
0.16600 -0.04989
0.16800 -0.00555
0.17000 0.06970
0.17200 -0.02134
0.17400 0.06676
0.17600 -0.09778
0.17800 -0.01738
0.18000 -0.01045
0.18200 -0.06697
0.18400 -0.06030
0.18600 0.03887
0.18800 0.01857
0.19000 0.05855
0.19200 -0.12870
0.19400 0.09660
0.19600 0.11493
0.19800 0.13405
0.20000 -0.00358
0.20200 -0.04225
0.20400 0.03649
0.20600 0.00962
0.20800 0.06016
0.21000 -0.14830
0.21200 -0.02245
0.21400 0.01407
0.21600 -0.06555
0.21800 -0.06681
0.22000 0.11310
0.22200 0.03377
0.22400 -0.06321
0.22600 0.10800
0.22800 -0.02539
0.23000 -0.05847
0.23200 -0.05294
0.23400 -0.04040
0.23600 0.03340
0.23800 -0.00412
0.24000 0.01440
0.24200 -0.03263
0.24400 0.03697
0.24600 -0.04986
0.24800 0.02070
0.25000 -0.07042
0.25200 0.06595
0.25400 0.04359
0.25600 -0.01610
0.25800 0.01190
0.26000 -0.03670
0.26200 -0.02611
0.26400 0.01429
0.26600 0.06589
0.26800 -0.10663
0.27000 -0.02113
0.27200 0.04678
0.27400 -0.07365
0.27600 -0.08183
0.27800 0.06343
0.28000 -0.02835
0.28200 0.11958
0.28400 0.05479
0.28600 0.00830
0.28800 -0.00491
0.29000 -0.00587
0.29200 -0.01310
0.29400 -0.02616
0.29600 -0.08591
0.29800 -0.03025
0.30000 0.02147
0.30200 -0.06542
0.30400 -0.07153
0.30600 -0.04623
0.30800 0.10507
0.31000 0.08780
0.31200 0.03900
0.31400 -0.03386
0.31600 0.06236
0.31800 -0.11104
0.32000 0.04524
0.32200 0.00887
0.32400 0.14440
0.32600 0.04071
0.32800 -0.02689
0.33000 0.01574
0.33200 -0.04564
0.33400 0.02771
0.33600 -0.02736
0.33800 0.04738
0.34000 0.06143
0.34200 -0.07100
0.34400 0.09013
0.34600 -0.17134
0.34800 -0.08074
0.35000 0.04950
0.35200 0.04975
0.35400 0.12145
0.35600 -0.01387
0.35800 -0.00511
0.36000 0.05229
0.36200 -0.03668
0.36400 0.03404
0.36600 -0.03708
0.36800 -0.02652
0.37000 0.05461
0.37200 0.03599
0.37400 -0.05521
0.37600 0.08660
0.37800 -0.08954
0.38000 0.02648
0.38200 0.04825
0.38400 -0.02851
0.38600 -0.07722
0.38800 -0.06292
0.39000 0.01261
0.39200 0.11235
0.39400 -0.01490
0.39600 -0.11784
0.39800 -0.03385
0.40000 -0.10780
0.40200 0.08177
0.40400 0.03464
0.40600 0.03085
0.40800 -0.13181
0.41000 -0.10275
0.41200 -0.07811
0.41400 -0.01674
0.41600 -0.01634
0.41800 -0.03789
0.42000 0.05998
0.42200 -0.07080
0.42400 0.06972
0.42600 0.03532
0.42800 -0.05979
0.43000 -0.02698
0.43200 0.11884
0.43400 0.02411
0.43600 -0.07795
0.43800 -0.00901
0.44000 -0.02370
0.44200 0.04195
0.44400 -0.04364
0.44600 0.05039
0.44800 -0.02113
0.45000 -0.03901
0.45200 0.06472
0.45400 0.02088
0.45600 -0.11034
0.45800 0.00927
0.46000 -0.00152
0.46200 0.02019
0.46400 0.07279
0.46600 -0.09356
0.46800 0.03853
0.47000 -0.02383
0.47200 0.05146
0.47400 -0.05020
0.47600 0.06066
0.47800 0.31625
0.48000 0.65075
0.48200 1.28372
0.48400 1.33742
0.48600 1.09376
0.48800 0.51522
0.49000 0.16735
0.49200 0.02212
0.49400 0.04693
0.49600 -0.07103
0.49800 0.12032
0.50000 0.12599
0.50200 -0.04119
0.50400 0.04697
0.50600 0.11904
0.50800 -0.01926
0.51000 0.01707
0.51200 0.07077
0.51400 0.07719
0.51600 0.01890
0.51800 -0.00298
0.52000 0.03693
0.52200 -0.00250
0.52400 0.07343
0.52600 -0.00834
0.52800 -0.01971
0.53000 -0.04847
0.53200 0.11322
0.53400 -0.02456
0.53600 -0.07618
0.53800 0.03722
0.54000 -0.03200
0.54200 0.04061
0.54400 -0.00534
0.54600 0.00515
0.54800 0.00287
0.55000 0.02114
0.55200 -0.00905
0.55400 -0.05309
0.55600 0.01704
0.55800 0.03097
0.56000 -0.10155
0.56200 -0.02512
0.56400 0.01850
0.56600 0.04782
0.56800 0.10673
0.57000 0.05905
0.57200 0.04613
0.57400 0.00669
0.57600 0.02339
0.57800 -0.00284
0.58000 0.03898
0.58200 -0.12465
0.58400 -0.00746
0.58600 0.10440
0.58800 -0.03519
0.59000 -0.08523
0.59200 -0.03557
0.59400 -0.00772
0.59600 0.06310
0.59800 -0.12058
0.60000 -0.01608
0.60200 0.07694
0.60400 0.02538
0.60600 -0.05105
0.60800 0.07932
0.61000 0.00645
0.61200 -0.00597
0.61400 0.00453
0.61600 -0.03028
0.61800 0.05992
0.62000 0.07043
0.62200 0.01527
0.62400 0.04656
0.62600 0.00476
0.62800 -0.01799
0.63000 0.00982
0.63200 -0.01906
0.63400 -0.00175
0.63600 -0.00603
0.63800 0.09161
0.64000 -0.09890
0.64200 -0.02431
0.64400 0.04631
0.64600 -0.04170
0.64800 -0.01097
0.65000 0.00132
0.65200 -0.00698
0.65400 0.00888
0.65600 -0.04752
0.65800 -0.02926
0.66000 -0.06583
0.66200 -0.02549
0.66400 -0.05106
0.66600 -0.10011
0.66800 -0.01074
0.67000 0.00136
0.67200 0.00965
0.67400 0.00201
0.67600 0.04309
0.67800 0.01630
0.68000 0.00655
0.68200 0.06371
0.68400 0.00502
0.68600 -0.05165
0.68800 0.04529
0.69000 0.00453
0.69200 -0.09892
0.69400 -0.02765
0.69600 -0.06572
0.69800 0.01989
0.70000 -0.01879
0.70200 -0.12068
0.70400 -0.07117
0.70600 0.07001
0.70800 -0.00539
0.71000 0.00266
0.71200 -0.02425
0.71400 -0.00169
0.71600 0.06260
0.71800 0.01569
0.72000 -0.02844
0.72200 -0.00282
0.72400 0.08566
0.72600 0.02764
0.72800 -0.01478
0.73000 0.08743
0.73200 -0.07294
0.73400 -0.14367
0.73600 -0.02223
0.73800 0.00642
0.74000 0.01466
0.74200 -0.09243
0.74400 -0.00667
0.74600 -0.03111
0.74800 0.06081
0.75000 0.05645
0.75200 0.00433
0.75400 -0.05975
0.75600 0.02324
0.75800 0.00124
0.76000 -0.00368
0.76200 0.00916
0.76400 0.06040
0.76600 -0.05666
0.76800 -0.08227
0.77000 0.01173
0.77200 0.03076
0.77400 0.00262
0.77600 -0.10636
0.77800 -0.01628
0.78000 -0.03893
0.78200 -0.00420
0.78400 0.00403
0.78600 -0.06941
0.78800 -0.03724
0.79000 -0.05946
0.79200 -0.02270
0.79400 0.05302
0.79600 -0.07235
0.79800 0.01819
0.80000 0.01034
0.80200 -0.06149
0.80400 0.04640
0.80600 -0.15545
0.80800 0.10332
0.81000 0.07032
0.81200 -0.02218
0.81400 -0.06812
0.81600 -0.05469
0.81800 -0.07610
0.82000 0.10078
0.82200 -0.07882
0.82400 0.01658
0.82600 -0.09552
0.82800 -0.00307
0.83000 0.02457
0.83200 -0.02882
0.83400 0.06504
0.83600 -0.00621
0.83800 0.03585
0.84000 -0.01163
0.84200 -0.06624
0.84400 -0.01484
0.84600 0.02280
0.84800 0.04705
0.85000 -0.03533
0.85200 -0.06080
0.85400 -0.01954
0.85600 -0.04387
0.85800 -0.01210
0.86000 -0.03088
0.86200 0.01413
0.86400 0.03189
0.86600 -0.06633
0.86800 0.00763
0.87000 -0.03867
0.87200 0.05129
0.87400 -0.05202
0.87600 -0.06099
0.87800 -0.08418
0.88000 -0.02581
0.88200 -0.00717
0.88400 -0.05885
0.88600 -0.00685
0.88800 -0.15759
0.89000 0.00024
0.89200 -0.00940
0.89400 -0.13454
0.89600 0.07549
0.89800 0.02066
0.90000 0.02871
0.90200 0.05948
0.90400 -0.04265
0.90600 -0.08107
0.90800 0.10716
0.91000 -0.04440
0.91200 -0.12051
0.91400 -0.12463
0.91600 0.12246
0.91800 0.00178
0.92000 0.01581
0.92200 0.00812
0.92400 0.02404
0.92600 0.11536
0.92800 -0.03159
0.93000 0.05924
0.93200 0.00715
0.93400 -0.03341
0.93600 -0.05287
0.93800 -0.00878
0.94000 -0.03983
0.94200 0.05741
0.94400 0.10444
0.94600 0.02958
0.94800 -0.03393
0.95000 -0.08227
0.95200 -0.06170
0.95400 0.05343
0.95600 0.04276
0.95800 0.07808
0.96000 -0.05961
0.96200 -0.00402
0.96400 0.07432
0.96600 0.01851
0.96800 -0.06521
0.97000 -0.05419
0.97200 -0.09483
0.97400 -0.08141
0.97600 0.08286
0.97800 -0.07036
0.98000 0.08470
0.98200 0.06448
0.98400 0.02361
0.98600 -0.04890
0.98800 0.12925
0.99000 0.05275
0.99200 0.06626
0.99400 0.00205
0.99600 -0.09062
0.99800 0.03265
1.00000 0.04279
1.00200 -0.08471
1.00400 -0.00185
1.00600 0.01249
1.00800 -0.07891
1.01000 0.00756
1.01200 -0.00119
1.01400 0.02404
1.01600 -0.00597
1.01800 -0.02461
1.02000 -0.01472
1.02200 -0.03258
1.02400 0.08691
1.02600 0.02238
1.02800 -0.04478
1.03000 -0.01098
1.03200 0.05903
1.03400 0.07545
1.03600 -0.04835
1.03800 0.04724
1.04000 0.03886
1.04200 0.03485
1.04400 -0.05136
1.04600 0.07707
1.04800 -0.02527
1.05000 -0.06583
1.05200 0.13980
1.05400 0.02818
1.05600 0.03315
1.05800 0.14291
1.06000 -0.10373
1.06200 -0.04386
1.06400 -0.11923
1.06600 -0.02545
1.06800 0.10427
1.07000 0.03094
1.07200 0.04682
1.07400 -0.04075
1.07600 -0.04886
1.07800 -0.05176
1.08000 0.12538
1.08200 0.00708
1.08400 0.04497
1.08600 -0.11270
1.08800 0.03420
1.09000 -0.09201
1.09200 -0.01194
1.09400 0.03910
1.09600 0.02735
1.09800 0.04374
1.10000 -0.04592
1.10200 -0.05200
1.10400 0.02790
1.10600 0.07754
1.10800 -0.00326
1.11000 0.00456
1.11200 0.00763
1.11400 -0.01921
1.11600 0.01135
1.11800 -0.03538
1.12000 -0.01375
1.12200 0.03919
1.12400 -0.07219
1.12600 -0.01031
1.12800 -0.00570
1.13000 0.00032
1.13200 -0.03871
1.13400 0.00512
1.13600 0.03471
1.13800 0.05921
1.14000 -0.11659
1.14200 0.01922
1.14400 -0.02736
1.14600 0.08166
1.14800 -0.06589
1.15000 -0.02708
1.15200 0.01352
1.15400 -0.12503
1.15600 0.10719
1.15800 0.05099
1.16000 -0.02534
1.16200 -0.08788
1.16400 0.01109
1.16600 0.03418
1.16800 0.03503
1.17000 0.03522
1.17200 0.06875
1.17400 0.05493
1.17600 -0.18244
1.17800 0.10365
1.18000 0.06705
1.18200 -0.03571
1.18400 0.00237
1.18600 0.05320
1.18800 -0.07973
1.19000 0.11361
1.19200 -0.02388
1.19400 0.00144
1.19600 -0.05862
1.19800 0.01336
1.20000 0.10038
1.20200 0.07843
1.20400 -0.01103
1.20600 -0.12802
1.20800 -0.02050
1.21000 -0.04855
1.21200 -0.00437
1.21400 -0.07535
1.21600 0.08722
1.21800 0.02943
1.22000 -0.01813
1.22200 -0.01800
1.22400 0.00691
1.22600 0.05030
1.22800 -0.06969
1.23000 -0.03338
1.23200 -0.00223
1.23400 -0.01788
1.23600 0.04644
1.23800 -0.00518
1.24000 0.06562
1.24200 -0.04089
1.24400 -0.07188
1.24600 -0.01685
1.24800 -0.14432
1.25000 -0.03960
1.25200 0.04504
1.25400 0.08635
1.25600 -0.07836
1.25800 -0.00990
1.26000 0.02590
1.26200 -0.11039
1.26400 0.05142
1.26600 0.03895
1.26800 0.06370
1.27000 0.05816
1.27200 -0.04278
1.27400 -0.07849
1.27600 0.01429
1.27800 0.02217
1.28000 0.20489
1.28200 -0.07895
1.28400 -0.06885
1.28600 0.00133
1.28800 -0.03392
1.29000 -0.08784
1.29200 -0.05276
1.29400 0.06191
1.29600 -0.00487
1.29800 0.04295
1.30000 0.00337
1.30200 0.14449
1.30400 -0.03092
1.30600 0.03808
1.30800 -0.03299
1.31000 -0.05314
1.31200 -0.06384
1.31400 -0.07455
1.31600 -0.03698
1.31800 -0.03948
1.32000 -0.07117
1.32200 -0.05248
1.32400 0.02391
1.32600 -0.07114
1.32800 0.06621
1.33000 0.04767
1.33200 0.00368
1.33400 -0.01561
1.33600 0.07996
1.33800 0.08113
1.34000 0.12116
1.34200 0.09270
1.34400 0.01148
1.34600 -0.06691
1.34800 -0.02936
1.35000 -0.11288
1.35200 -0.02131
1.35400 -0.01854
1.35600 0.03565
1.35800 -0.03911
1.36000 0.05794
1.36200 0.04031
1.36400 -0.02246
1.36600 -0.00064
1.36800 -0.02143
1.37000 -0.01058
1.37200 -0.03264
1.37400 -0.06080
1.37600 -0.03933
1.37800 0.02833
1.38000 -0.06153
1.38200 -0.05853
1.38400 -0.01236
1.38600 0.11541
1.38800 0.03289
1.39000 -0.00527
1.39200 0.05062
1.39400 0.02246
1.39600 -0.15970
1.39800 0.00580
1.40000 0.04035
1.40200 0.06175
1.40400 0.04637
1.40600 0.04771
1.40800 -0.10191
1.41000 -0.03062
1.41200 0.00502
1.41400 0.10543
1.41600 -0.04342
1.41800 0.05323
1.42000 0.06498
1.42200 0.10201
1.42400 0.04793
1.42600 0.09003
1.42800 0.02185
1.43000 -0.05849
1.43200 -0.08077
1.43400 0.03991
1.43600 -0.07221
1.43800 0.10821
1.44000 0.06226
1.44200 0.03472
1.44400 0.04322
1.44600 0.26223
1.44800 0.78484
1.45000 1.32253
1.45200 1.42549
1.45400 1.18969
1.45600 0.51031
1.45800 0.12772
1.46000 0.03746
1.46200 0.00149
1.46400 0.09268
1.46600 0.01344
1.46800 -0.01939
1.47000 0.00380
1.47200 0.01751
1.47400 -0.06150
1.47600 -0.09724
1.47800 -0.03561
1.48000 0.00214
1.48200 -0.10118
1.48400 -0.09406
1.48600 -0.03054
1.48800 0.00679
1.49000 0.02760
1.49200 -0.06179
1.49400 0.04583
1.49600 -0.10322
1.49800 -0.02369
1.50000 -0.01272
1.50200 0.11883
1.50400 0.05036
1.50600 -0.07634
1.50800 0.03868
1.51000 -0.01930
1.51200 -0.00014
1.51400 0.06357
1.51600 -0.01734
1.51800 -0.06533
1.52000 -0.01058
1.52200 0.01584
1.52400 -0.00453
1.52600 -0.05327
1.52800 -0.02545
1.53000 -0.01783
1.53200 -0.00886
1.53400 0.04195
1.53600 0.06516
1.53800 -0.02137
1.54000 -0.07461
1.54200 0.02323
1.54400 -0.04795
1.54600 0.07800
1.54800 0.01734
1.55000 0.03474
1.55200 -0.14058
1.55400 -0.01605
1.55600 0.03251
1.55800 -0.09177
1.56000 -0.01480
1.56200 0.06402
1.56400 0.03076
1.56600 -0.07073
1.56800 0.04456
1.57000 0.03550
1.57200 0.03502
1.57400 0.01143
1.57600 0.00895
1.57800 -0.02447
1.58000 -0.04619
1.58200 -0.11158
1.58400 0.01984
1.58600 0.01022
1.58800 -0.01253
1.59000 0.01849
1.59200 0.02667
1.59400 -0.05646
1.59600 -0.01022
1.59800 0.02380
1.60000 0.08616
1.60200 -0.02427
1.60400 0.00699
1.60600 -0.04127
1.60800 -0.04163
1.61000 0.07344
1.61200 -0.14656
1.61400 0.05595
1.61600 -0.04590
1.61800 -0.03119
1.62000 -0.00208
1.62200 0.00429
1.62400 0.03798
1.62600 0.05633
1.62800 0.06154
1.63000 -0.09722
1.63200 -0.00337
1.63400 0.01732
1.63600 0.02106
1.63800 -0.09012
1.64000 0.08579
1.64200 0.05294
1.64400 -0.00778
1.64600 0.17338
1.64800 -0.06708
1.65000 -0.02003
1.65200 -0.01464
1.65400 0.03201
1.65600 -0.04315
1.65800 -0.04163
1.66000 0.06595
1.66200 -0.01479
1.66400 0.05566
1.66600 0.08217
1.66800 -0.01723
1.67000 -0.05636
1.67200 -0.02912
1.67400 0.03007
1.67600 0.06746
1.67800 0.01884
1.68000 -0.07285
1.68200 0.01621
1.68400 0.10445
1.68600 0.09562
1.68800 -0.03954
1.69000 0.01664
1.69200 0.02468
1.69400 -0.09293
1.69600 0.02526
1.69800 -0.10378
1.70000 -0.09606
1.70200 -0.05316
1.70400 -0.09103
1.70600 0.00418
1.70800 0.01901
1.71000 -0.04027
1.71200 -0.02258
1.71400 0.04145
1.71600 0.01466
1.71800 0.12123
1.72000 0.07873
1.72200 -0.11011
1.72400 -0.02018
1.72600 -0.05336
1.72800 -0.08394
1.73000 0.06165
1.73200 -0.00196
1.73400 -0.07324
1.73600 0.09082
1.73800 0.08912
1.74000 -0.01599
1.74200 0.03499
1.74400 -0.03342
1.74600 -0.00200
1.74800 -0.09470
1.75000 -0.02324
1.75200 0.01198
1.75400 -0.04906
1.75600 0.08634
1.75800 -0.06294
1.76000 0.01586
1.76200 0.01295
1.76400 -0.09738
1.76600 0.07000
1.76800 0.01005
1.77000 0.06183
1.77200 0.01032
1.77400 0.02027
1.77600 0.10576
1.77800 0.00009
1.78000 0.01981
1.78200 -0.03402
1.78400 0.01559
1.78600 -0.00977
1.78800 -0.00205
1.79000 0.07643
1.79200 -0.03160
1.79400 0.00158
1.79600 -0.02411
1.79800 0.14561
1.80000 -0.00312
1.80200 -0.02273
1.80400 0.00700
1.80600 -0.09256
1.80800 0.09082
1.81000 -0.05919
1.81200 -0.05440
1.81400 0.03552
1.81600 -0.07243
1.81800 0.08368
1.82000 0.01316
1.82200 0.08365
1.82400 -0.10982
1.82600 -0.01368
1.82800 0.02929
1.83000 -0.04601
1.83200 0.10138
1.83400 0.01247
1.83600 -0.01519
1.83800 0.01471
1.84000 0.05469
1.84200 0.00038
1.84400 0.00306
1.84600 -0.01694
1.84800 0.03271
1.85000 0.00391
1.85200 -0.00296
1.85400 0.07281
1.85600 -0.01624
1.85800 -0.06234
1.86000 -0.01341
1.86200 -0.03354
1.86400 -0.05106
1.86600 0.04009
1.86800 0.00046
1.87000 0.00633
1.87200 0.08525
1.87400 0.03990
1.87600 0.01529
1.87800 -0.02302
1.88000 0.06008
1.88200 -0.02358
1.88400 0.08470
1.88600 0.06684
1.88800 -0.01388
1.89000 0.03889
1.89200 0.04556
1.89400 0.00215
1.89600 0.02729
1.89800 0.08095
1.90000 -0.10073
1.90200 0.01796
1.90400 0.02977
1.90600 0.02620
1.90800 -0.04088
1.91000 -0.01767
1.91200 -0.00879
1.91400 0.11231
1.91600 -0.04192
1.91800 0.05013
1.92000 0.06867
1.92200 0.00038
1.92400 0.12116
1.92600 -0.00976
1.92800 -0.04593
1.93000 -0.02461
1.93200 0.01663
1.93400 0.05825
1.93600 -0.06374
1.93800 -0.05664
1.94000 0.06847
1.94200 0.03907
1.94400 -0.03688
1.94600 -0.07343
1.94800 -0.10498
1.95000 -0.05843
1.95200 0.04874
1.95400 -0.03537
1.95600 0.07543
1.95800 0.00868
1.96000 -0.07520
1.96200 0.06232
1.96400 0.00939
1.96600 0.00340
1.96800 0.05010
1.97000 -0.02970
1.97200 0.19123
1.97400 -0.03188
1.97600 -0.00269
1.97800 0.00483
1.98000 0.11914
1.98200 0.02793
1.98400 -0.05245
1.98600 0.06820
1.98800 -0.00693
1.99000 -0.00073
1.99200 -0.03761
1.99400 0.08288
1.99600 0.03394
1.99800 -0.02902
2.00000 -0.01365
2.00200 0.06375
2.00400 -0.07822
2.00600 0.06714
2.00800 -0.11103
2.01000 0.03248
2.01200 -0.01798
2.01400 0.03240
2.01600 -0.00384
2.01800 0.12555
2.02000 -0.01393
2.02200 -0.03186
2.02400 0.00532
2.02600 -0.05729
2.02800 -0.09665
2.03000 -0.03059
2.03200 -0.01113
2.03400 -0.06915
2.03600 0.02295
2.03800 -0.03036
2.04000 0.06584
2.04200 0.03335
2.04400 -0.14748
2.04600 0.00358
2.04800 0.00380
2.05000 -0.09524
2.05200 0.03940
2.05400 -0.09046
2.05600 -0.02689
2.05800 -0.02823
2.06000 0.09157
2.06200 -0.06176
2.06400 0.03500
2.06600 -0.00950
2.06800 -0.00788
2.07000 -0.09202
2.07200 0.18418
2.07400 -0.10870
2.07600 -0.03326
2.07800 0.06989
2.08000 -0.02064
2.08200 0.01515
2.08400 -0.04663
2.08600 0.03671
2.08800 0.03224
2.09000 0.03292
2.09200 -0.03834
2.09400 -0.03641
2.09600 -0.03118
2.09800 -0.16518
2.10000 -0.03313
2.10200 0.09021
2.10400 -0.07958
2.10600 0.04935
2.10800 -0.00818
2.11000 -0.01510
2.11200 -0.09649
2.11400 0.06937
2.11600 -0.05205
2.11800 0.00266
2.12000 0.03431
2.12200 0.06477
2.12400 0.01358
2.12600 0.00444
2.12800 -0.01548
2.13000 0.07541
2.13200 -0.08672
2.13400 -0.02029
2.13600 -0.02502
2.13800 0.01728
2.14000 0.00956
2.14200 0.02809
2.14400 -0.04925
2.14600 -0.03459
2.14800 0.04699
2.15000 0.11086
2.15200 -0.01262
2.15400 -0.04201
2.15600 0.04213
2.15800 0.00035
2.16000 -0.10195
2.16200 0.07365
2.16400 -0.01201
2.16600 0.04550
2.16800 -0.04576
2.17000 -0.10039
2.17200 0.00594
2.17400 0.01178
2.17600 0.03129
2.17800 0.02397
2.18000 0.10829
2.18200 0.06583
2.18400 0.03029
2.18600 -0.02246
2.18800 -0.07053
2.19000 0.03716
2.19200 -0.00123
2.19400 0.01363
2.19600 -0.03221
2.19800 0.01119
2.20000 0.01765
2.20200 0.00806
2.20400 -0.00510
2.20600 -0.03227
2.20800 0.04175
2.21000 0.03459
2.21200 -0.06925
2.21400 -0.04515
2.21600 -0.04391
2.21800 -0.03711
2.22000 -0.03931
2.22200 -0.06171
2.22400 -0.10611
2.22600 0.07212
2.22800 -0.04334
2.23000 -0.01281
2.23200 0.07452
2.23400 0.03310
2.23600 0.07909
2.23800 -0.04531
2.24000 0.00677
2.24200 0.06503
2.24400 -0.00582
2.24600 -0.04233
2.24800 0.02671
2.25000 0.07948
2.25200 -0.09487
2.25400 0.05594
2.25600 0.03607
2.25800 -0.06420
2.26000 -0.03078
2.26200 0.02812
2.26400 -0.12105
2.26600 -0.01195
2.26800 0.01061
2.27000 -0.02310
2.27200 -0.01884
2.27400 -0.13358
2.27600 -0.09515
2.27800 -0.02610
2.28000 0.14975
2.28200 0.00256
2.28400 0.02472
2.28600 0.00482
2.28800 0.04141
2.29000 -0.06880
2.29200 0.13685
2.29400 -0.03434
2.29600 -0.09441
2.29800 -0.02182
2.30000 0.01320
2.30200 0.01211
2.30400 -0.08144
2.30600 0.02506
2.30800 -0.02073
2.31000 0.10045
2.31200 -0.01255
2.31400 0.10119
2.31600 -0.08883
2.31800 0.01395
2.32000 0.11093
2.32200 0.07241
2.32400 0.05210
2.32600 0.01399
2.32800 0.04152
2.33000 0.06493
2.33200 -0.08066
2.33400 0.05026
2.33600 0.05139
2.33800 -0.04053
2.34000 0.04829
2.34200 -0.04968
2.34400 -0.02929
2.34600 0.04418
2.34800 -0.14891
2.35000 -0.04309
2.35200 -0.08169
2.35400 -0.03791
2.35600 -0.07637
2.35800 -0.03683
2.36000 -0.00250
2.36200 0.02829
2.36400 0.02848
2.36600 0.08077
2.36800 0.06692
2.37000 0.06294
2.37200 -0.02535
2.37400 0.00163
2.37600 0.04308
2.37800 -0.09690
2.38000 -0.03265
2.38200 -0.01153
2.38400 -0.02454
2.38600 0.00157
2.38800 -0.00161
2.39000 0.10038
2.39200 -0.02592
2.39400 -0.09992
2.39600 -0.08335
2.39800 -0.06660
2.40000 0.00367
2.40200 0.05233
2.40400 0.02630
2.40600 -0.05528
2.40800 0.03202
2.41000 0.11914
2.41200 0.05264
2.41400 0.29185
2.41600 0.85173
2.41800 1.38403
2.42000 1.39903
2.42200 0.85278
2.42400 0.36154
2.42600 0.20378
2.42800 -0.06479
2.43000 0.00480
2.43200 -0.00802
2.43400 -0.04242
2.43600 -0.08215
2.43800 -0.03289
2.44000 -0.03929
2.44200 0.07326
2.44400 0.00582
2.44600 0.15482
2.44800 0.07029
2.45000 0.02085
2.45200 -0.09550
2.45400 -0.00698
2.45600 -0.04269
2.45800 0.00599
2.46000 -0.04334
2.46200 -0.03951
2.46400 0.10850
2.46600 -0.00797
2.46800 0.00866
2.47000 -0.02964
2.47200 0.00932
2.47400 0.10799
2.47600 -0.07253
2.47800 0.00117
2.48000 -0.02569
2.48200 0.04234
2.48400 -0.08630
2.48600 0.08778
2.48800 0.03555
2.49000 0.01619
2.49200 -0.06149
2.49400 0.00683
2.49600 0.10578
2.49800 0.04185
2.50000 -0.04946
2.50200 -0.05705
2.50400 -0.07904
2.50600 0.07549
2.50800 -0.05093
2.51000 -0.03577
2.51200 0.01483
2.51400 -0.11439
2.51600 -0.00972
2.51800 0.05566
2.52000 0.08883
2.52200 0.03451
2.52400 -0.04303
2.52600 0.03270
2.52800 -0.00454
2.53000 -0.00012
2.53200 0.04157
2.53400 -0.09268
2.53600 -0.07748
2.53800 0.11757
2.54000 -0.06491
2.54200 -0.00022
2.54400 -0.10227
2.54600 0.00603
2.54800 0.02466
2.55000 -0.09200
2.55200 0.08067
2.55400 -0.01519
2.55600 0.12393
2.55800 -0.05857
2.56000 0.02288
2.56200 0.09372
2.56400 0.07792
2.56600 0.08913
2.56800 0.05720
2.57000 0.00888
2.57200 0.05324
2.57400 0.02939
2.57600 -0.03231
2.57800 0.03901
2.58000 0.06684
2.58200 0.05071
2.58400 -0.16016
2.58600 0.00082
2.58800 0.00170
2.59000 0.01817
2.59200 0.04712
2.59400 0.06655
2.59600 0.06649
2.59800 0.02291
2.60000 0.08243
2.60200 -0.04407
2.60400 0.02432
2.60600 0.11024
2.60800 0.03418
2.61000 -0.04767
2.61200 0.00982
2.61400 -0.00328
2.61600 -0.06163
2.61800 0.00526
2.62000 0.03912
2.62200 -0.06145
2.62400 0.03956
2.62600 -0.14510
2.62800 -0.03960
2.63000 0.02177
2.63200 0.02386
2.63400 0.05489
2.63600 -0.01431
2.63800 -0.03435
2.64000 -0.13102
2.64200 -0.04002
2.64400 -0.06135
2.64600 0.06225
2.64800 0.04214
2.65000 0.01387
2.65200 0.06724
2.65400 0.09645
2.65600 0.05371
2.65800 -0.02240
2.66000 -0.04297
2.66200 0.05711
2.66400 0.13874
2.66600 0.04064
2.66800 -0.03023
2.67000 0.03778
2.67200 -0.04625
2.67400 -0.09824
2.67600 0.02205
2.67800 -0.03179
2.68000 0.08967
2.68200 -0.17142
2.68400 -0.03080
2.68600 0.01101
2.68800 -0.02142
2.69000 -0.00205
2.69200 0.07910
2.69400 -0.08383
2.69600 -0.07259
2.69800 -0.07348
2.70000 0.06377
2.70200 -0.02606
2.70400 0.00598
2.70600 -0.09124
2.70800 -0.07191
2.71000 -0.01393
2.71200 0.17774
2.71400 -0.04259
2.71600 -0.06352
2.71800 0.05122
2.72000 0.02665
2.72200 -0.16030
2.72400 0.02072
2.72600 -0.04689
2.72800 0.01828
2.73000 -0.00675
2.73200 0.08611
2.73400 0.00364
2.73600 -0.04812
2.73800 0.03441
2.74000 -0.08592
2.74200 -0.10582
2.74400 0.01205
2.74600 -0.07600
2.74800 0.03639
2.75000 0.01788
2.75200 0.00262
2.75400 0.06262
2.75600 0.05005
2.75800 0.02720
2.76000 0.03896
2.76200 0.03304
2.76400 0.02205
2.76600 -0.07184
2.76800 -0.16960
2.77000 -0.10851
2.77200 -0.05614
2.77400 0.03449
2.77600 -0.10143
2.77800 -0.01999
2.78000 -0.01192
2.78200 0.01411
2.78400 0.04010
2.78600 -0.00328
2.78800 0.00525
2.79000 -0.10922
2.79200 -0.02924
2.79400 -0.02936
2.79600 0.10269
2.79800 0.08788
2.80000 0.08004
2.80200 0.00838
2.80400 -0.00971
2.80600 -0.05038
2.80800 -0.02123
2.81000 -0.10301
2.81200 -0.04384
2.81400 -0.05396
2.81600 -0.01557
2.81800 0.22145
2.82000 0.09312
2.82200 -0.05854
2.82400 0.08657
2.82600 -0.04427
2.82800 -0.07341
2.83000 -0.00065
2.83200 -0.03738
2.83400 -0.07236
2.83600 -0.03283
2.83800 -0.01176
2.84000 0.12644
2.84200 -0.06310
2.84400 -0.02860
2.84600 0.07707
2.84800 -0.04643
2.85000 -0.02901
2.85200 -0.06599
2.85400 -0.01785
2.85600 0.00987
2.85800 -0.05550
2.86000 0.08452
2.86200 -0.08985
2.86400 -0.03306
2.86600 -0.03782
2.86800 -0.01954
2.87000 -0.10003
2.87200 -0.06146
2.87400 -0.02192
2.87600 0.04257
2.87800 0.02179
2.88000 -0.01572
2.88200 -0.01965
2.88400 0.09562
2.88600 -0.01457
2.88800 0.00474
2.89000 0.00148
2.89200 0.01300
2.89400 0.01992
2.89600 -0.01134
2.89800 0.05899
2.90000 0.04464
2.90200 0.01392
2.90400 0.11066
2.90600 -0.07279
2.90800 0.00676
2.91000 0.04341
2.91200 -0.04859
2.91400 0.02996
2.91600 -0.01521
2.91800 -0.06984
2.92000 0.03965
2.92200 -0.05917
2.92400 -0.03921
2.92600 -0.01745
2.92800 -0.03940
2.93000 -0.04274
2.93200 -0.02306
2.93400 -0.03398
2.93600 0.06360
2.93800 -0.00929
2.94000 0.08549
2.94200 -0.02299
2.94400 0.06110
2.94600 -0.04429
2.94800 -0.09373
2.95000 -0.01016
2.95200 -0.11802
2.95400 0.06483
2.95600 0.02912
2.95800 0.01557
2.96000 -0.02528
2.96200 -0.00024
2.96400 -0.02289
2.96600 0.09822
2.96800 0.02338
2.97000 -0.03712
2.97200 -0.04937
2.97400 0.05202
2.97600 -0.00172
2.97800 0.06240
2.98000 0.00862
2.98200 0.05024
2.98400 -0.13862
2.98600 0.02705
2.98800 -0.04707
2.99000 0.05034
2.99200 0.05483
2.99400 0.03219
2.99600 0.00046
2.99800 0.00269
3.00000 0.00667
3.00200 0.00726
3.00400 -0.08084
3.00600 0.02902
3.00800 0.00847
3.01000 -0.02934
3.01200 0.07321
3.01400 -0.02167
3.01600 0.03574
3.01800 0.06562
3.02000 0.12208
3.02200 0.00262
3.02400 0.04287
3.02600 -0.09647
3.02800 -0.00426
3.03000 -0.02991
3.03200 0.01828
3.03400 -0.09929
3.03600 0.04349
3.03800 0.02988
3.04000 0.07178
3.04200 0.00416
3.04400 -0.00271
3.04600 0.00367
3.04800 0.03761
3.05000 -0.08600
3.05200 0.07161
3.05400 -0.02136
3.05600 -0.10885
3.05800 0.02233
3.06000 0.11875
3.06200 -0.03657
3.06400 -0.06249
3.06600 -0.16073
3.06800 -0.10542
3.07000 0.01976
3.07200 -0.04371
3.07400 0.03127
3.07600 -0.03903
3.07800 0.03723
3.08000 -0.04617
3.08200 0.07708
3.08400 -0.03559
3.08600 0.13129
3.08800 -0.02931
3.09000 -0.02750
3.09200 0.07902
3.09400 0.10323
3.09600 -0.06261
3.09800 -0.09902
3.10000 0.07568
3.10200 -0.02867
3.10400 -0.07378
3.10600 0.07643
3.10800 -0.09307
3.11000 0.00095
3.11200 0.03219
3.11400 0.05302
3.11600 0.06443
3.11800 -0.05571
3.12000 0.02689
3.12200 0.02568
3.12400 0.09487
3.12600 0.03411
3.12800 -0.06603
3.13000 -0.07699
3.13200 -0.03053
3.13400 0.14164
3.13600 -0.00721
3.13800 -0.06052
3.14000 0.01187
3.14200 0.06196
3.14400 0.02360
3.14600 -0.01430
3.14800 0.10461
3.15000 0.06756
3.15200 0.07342
3.15400 -0.05902
3.15600 -0.04405
3.15800 -0.04032
3.16000 -0.00460
3.16200 0.00723
3.16400 -0.08829
3.16600 -0.06491
3.16800 0.01032
3.17000 0.02355
3.17200 0.10931
3.17400 0.00399
3.17600 0.06148
3.17800 -0.11725
3.18000 0.02529
3.18200 -0.09207
3.18400 -0.05326
3.18600 0.00763
3.18800 0.00726
3.19000 -0.04001
3.19200 0.04223
3.19400 -0.10536
3.19600 -0.03143
3.19800 0.01159
3.20000 -0.03041
3.20200 0.01261
3.20400 0.11970
3.20600 -0.03291
3.20800 -0.00745
3.21000 -0.05684
3.21200 -0.07677
3.21400 -0.01270
3.21600 0.05719
3.21800 -0.05013
3.22000 0.06571
3.22200 0.01738
3.22400 -0.07199
3.22600 -0.08576
3.22800 -0.07652
3.23000 0.02025
3.23200 -0.01680
3.23400 0.06990
3.23600 -0.01137
3.23800 0.01478
3.24000 0.05015
3.24200 0.11905
3.24400 -0.08772
3.24600 0.06681
3.24800 0.00172
3.25000 0.04938
3.25200 -0.02264
3.25400 0.08193
3.25600 -0.04863
3.25800 0.02668
3.26000 0.02892
3.26200 0.06328
3.26400 -0.07156
3.26600 -0.09943
3.26800 0.10731
3.27000 0.07581
3.27200 -0.01458
3.27400 0.00048
3.27600 -0.07267
3.27800 0.10466
3.28000 -0.09024
3.28200 0.03049
3.28400 -0.00033
3.28600 0.06441
3.28800 0.07133
3.29000 -0.06400
3.29200 -0.05618
3.29400 0.01826
3.29600 -0.09582
3.29800 0.06181
3.30000 0.03589
3.30200 -0.11641
3.30400 0.10735
3.30600 -0.04794
3.30800 0.05535
3.31000 -0.05853
3.31200 0.09073
3.31400 -0.01402
3.31600 -0.04774
3.31800 0.06660
3.32000 -0.02251
3.32200 -0.05738
3.32400 -0.05384
3.32600 0.01474
3.32800 0.02451
3.33000 -0.02611
3.33200 -0.02921
3.33400 -0.00331
3.33600 -0.04308
3.33800 0.07330
3.34000 0.07335
3.34200 -0.05331
3.34400 -0.03650
3.34600 0.15629
3.34800 0.03804
3.35000 -0.05517
3.35200 0.01403
3.35400 -0.03160
3.35600 -0.01664
3.35800 0.06946
3.36000 -0.03744
3.36200 -0.03480
3.36400 -0.01301
3.36600 0.02311
3.36800 -0.01682
3.37000 0.11832
3.37200 -0.04266
3.37400 0.06131
3.37600 -0.06010
3.37800 -0.06337
3.38000 0.07955
3.38200 0.33970
3.38400 0.76043
3.38600 1.33447
3.38800 1.48357
3.39000 1.02099
3.39200 0.50372
3.39400 0.19072
3.39600 -0.02326
3.39800 0.01855
3.40000 0.01051
3.40200 -0.03103
3.40400 0.05052
3.40600 0.00002
3.40800 0.06579
3.41000 0.05563
3.41200 0.06725
3.41400 0.03578
3.41600 -0.04063
3.41800 -0.05136
3.42000 0.01952
3.42200 0.00015
3.42400 0.06707
3.42600 -0.07712
3.42800 0.05644
3.43000 0.00982
3.43200 -0.08850
3.43400 0.05397
3.43600 0.01974
3.43800 -0.02808
3.44000 -0.04249
3.44200 0.06598
3.44400 -0.04644
3.44600 0.09870
3.44800 -0.01478
3.45000 0.02770
3.45200 0.01247
3.45400 0.00839
3.45600 0.02326
3.45800 -0.05938
3.46000 0.08691
3.46200 0.04781
3.46400 0.03478
3.46600 0.00446
3.46800 0.00055
3.47000 0.08004
3.47200 -0.00382
3.47400 -0.02496
3.47600 -0.05323
3.47800 -0.08319
3.48000 0.05129
3.48200 0.02111
3.48400 -0.08327
3.48600 0.00251
3.48800 0.01362
3.49000 0.09171
3.49200 0.02238
3.49400 0.05630
3.49600 0.16621
3.49800 -0.08903
3.50000 0.10540
3.50200 0.03394
3.50400 0.01744
3.50600 -0.04804
3.50800 -0.01422
3.51000 0.05618
3.51200 -0.06086
3.51400 -0.06980
3.51600 0.07346
3.51800 -0.00943
3.52000 -0.01532
3.52200 -0.08047
3.52400 -0.00963
3.52600 -0.00898
3.52800 -0.01085
3.53000 -0.01365
3.53200 0.00812
3.53400 0.04735
3.53600 -0.07016
3.53800 -0.00165
3.54000 0.01273
3.54200 -0.03169
3.54400 -0.02204
3.54600 -0.08850
3.54800 -0.09484
3.55000 -0.03810
3.55200 -0.00550
3.55400 0.03336
3.55600 0.10817
3.55800 0.02875
3.56000 0.06982
3.56200 -0.03727
3.56400 -0.01425
3.56600 -0.03078
3.56800 -0.05271
3.57000 0.08380
3.57200 -0.03429
3.57400 -0.01157
3.57600 0.06782
3.57800 -0.02260
3.58000 0.02184
3.58200 0.05042
3.58400 0.07072
3.58600 0.02413
3.58800 -0.04821
3.59000 -0.02201
3.59200 0.00579
3.59400 -0.03664
3.59600 -0.06301
3.59800 0.05281
3.60000 0.10491
3.60200 0.00374
3.60400 -0.11335
3.60600 0.14656
3.60800 -0.01661
3.61000 -0.00054
3.61200 0.01959
3.61400 -0.03249
3.61600 0.07402
3.61800 0.04132
3.62000 0.05640
3.62200 0.01910
3.62400 -0.00953
3.62600 0.06260
3.62800 -0.06421
3.63000 -0.05703
3.63200 0.01237
3.63400 0.00401
3.63600 -0.07798
3.63800 -0.06533
3.64000 -0.06236
3.64200 0.06447
3.64400 -0.05397
3.64600 -0.07990
3.64800 -0.09545
3.65000 0.00129
3.65200 -0.06712
3.65400 -0.02633
3.65600 0.08936
3.65800 0.00842
3.66000 -0.12713
3.66200 0.03514
3.66400 -0.10013
3.66600 -0.04522
3.66800 0.02824
3.67000 -0.06631
3.67200 -0.10591
3.67400 0.02216
3.67600 -0.19240
3.67800 -0.06967
3.68000 -0.00763
3.68200 -0.02416
3.68400 -0.14429
3.68600 -0.02202
3.68800 0.03381
3.69000 -0.14651
3.69200 -0.02090
3.69400 -0.01073
3.69600 0.05974
3.69800 0.03375
3.70000 -0.05744
3.70200 -0.06240
3.70400 0.00589
3.70600 -0.12875
3.70800 0.04704
3.71000 0.05934
3.71200 0.04250
3.71400 -0.03099
3.71600 -0.05030
3.71800 -0.07943
3.72000 -0.02613
3.72200 0.04523
3.72400 -0.02208
3.72600 -0.04891
3.72800 0.03721
3.73000 -0.02169
3.73200 0.00669
3.73400 -0.04855
3.73600 0.05094
3.73800 0.02128
3.74000 -0.07646
3.74200 0.05997
3.74400 -0.02029
3.74600 0.03375
3.74800 0.01077
3.75000 -0.11936
3.75200 -0.04576
3.75400 0.12694
3.75600 -0.01011
3.75800 -0.03411
3.76000 -0.03402
3.76200 -0.05160
3.76400 -0.00285
3.76600 0.09230
3.76800 -0.03929
3.77000 -0.08215
3.77200 0.00260
3.77400 -0.08087
3.77600 -0.01349
3.77800 0.10777
3.78000 0.05393
3.78200 -0.04108
3.78400 0.15112
3.78600 -0.01716
3.78800 0.08381
3.79000 -0.01306
3.79200 -0.05369
3.79400 -0.03352
3.79600 -0.01709
3.79800 0.05184
3.80000 0.00673
3.80200 0.05682
3.80400 -0.02918
3.80600 0.12428
3.80800 0.10859
3.81000 -0.01409
3.81200 -0.00906
3.81400 -0.01696
3.81600 -0.10469
3.81800 -0.16640
3.82000 -0.01623
3.82200 -0.03524
3.82400 0.08158
3.82600 -0.00487
3.82800 0.08364
3.83000 0.03446
3.83200 -0.05882
3.83400 0.12301
3.83600 0.06099
3.83800 0.01372
3.84000 0.13327
3.84200 -0.06389
3.84400 0.06822
3.84600 0.09358
3.84800 0.04579
3.85000 0.08864
3.85200 -0.05039
3.85400 0.00760
3.85600 0.02578
3.85800 -0.00744
3.86000 0.11670
3.86200 -0.04985
3.86400 0.06955
3.86600 0.00077
3.86800 0.03623
3.87000 0.01076
3.87200 -0.03088
3.87400 0.06794
3.87600 -0.08784
3.87800 0.00291
3.88000 0.05808
3.88200 -0.04289
3.88400 0.02294
3.88600 -0.00699
3.88800 -0.10558
3.89000 0.00761
3.89200 0.05390
3.89400 -0.01105
3.89600 0.08453
3.89800 -0.08587
3.90000 -0.00184
3.90200 0.04863
3.90400 -0.01884
3.90600 0.00280
3.90800 -0.03663
3.91000 -0.05736
3.91200 0.04019
3.91400 0.17667
3.91600 -0.01635
3.91800 0.01712
3.92000 0.05185
3.92200 -0.02722
3.92400 0.07979
3.92600 0.00399
3.92800 0.10474
3.93000 0.01271
3.93200 -0.05958
3.93400 0.05169
3.93600 -0.09255
3.93800 0.06532
3.94000 -0.06516
3.94200 -0.06250
3.94400 -0.05242
3.94600 0.06105
3.94800 -0.02281
3.95000 0.08942
3.95200 0.04991
3.95400 0.01535
3.95600 0.02761
3.95800 -0.02086
3.96000 0.00002
3.96200 -0.05393
3.96400 0.00122
3.96600 -0.05210
3.96800 0.04088
3.97000 0.01225
3.97200 -0.00039
3.97400 0.05687
3.97600 -0.05187
3.97800 0.05835
3.98000 0.02978
3.98200 -0.12916
3.98400 -0.00261
3.98600 0.01908
3.98800 -0.04272
3.99000 0.05844
3.99200 -0.10103
3.99400 -0.04546
3.99600 -0.05513
3.99800 0.09075
4.00000 0.02934
4.00200 -0.08040
4.00400 0.10230
4.00600 0.11572
4.00800 0.08581
4.01000 -0.09799
4.01200 -0.03644
4.01400 -0.00231
4.01600 0.01665
4.01800 0.04012
4.02000 0.00230
4.02200 0.05387
4.02400 0.00760
4.02600 -0.07313
4.02800 -0.01224
4.03000 -0.06903
4.03200 -0.03299
4.03400 0.05095
4.03600 0.07525
4.03800 0.04797
4.04000 -0.07939
4.04200 -0.05314
4.04400 0.03585
4.04600 0.06098
4.04800 -0.10006
4.05000 -0.09234
4.05200 -0.01862
4.05400 0.01031
4.05600 0.02198
4.05800 -0.04463
4.06000 0.08461
4.06200 -0.10956
4.06400 0.00681
4.06600 0.02530
4.06800 0.04399
4.07000 0.00062
4.07200 0.06339
4.07400 0.00424
4.07600 -0.10063
4.07800 -0.02181
4.08000 0.00842
4.08200 -0.08489
4.08400 0.11348
4.08600 -0.11102
4.08800 -0.00051
4.09000 0.06418
4.09200 -0.05010
4.09400 0.06865
4.09600 -0.09868
4.09800 -0.10854
4.10000 -0.00447
4.10200 0.02259
4.10400 0.06104
4.10600 0.05545
4.10800 0.06564
4.11000 0.07396
4.11200 0.03278
4.11400 0.02535
4.11600 -0.04813
4.11800 -0.10131
4.12000 0.06598
4.12200 0.10446
4.12400 -0.02973
4.12600 -0.01740
4.12800 0.01453
4.13000 -0.07999
4.13200 -0.03588
4.13400 -0.02313
4.13600 -0.10964
4.13800 0.05894
4.14000 -0.04069
4.14200 0.00053
4.14400 -0.10217
4.14600 -0.13401
4.14800 -0.02570
4.15000 -0.02153
4.15200 -0.03360
4.15400 -0.02155
4.15600 -0.01396
4.15800 -0.05754
4.16000 -0.01357
4.16200 0.05404
4.16400 0.09052
4.16600 0.09855
4.16800 -0.06547
4.17000 -0.00580
4.17200 -0.02741
4.17400 -0.02902
4.17600 0.09197
4.17800 -0.02686
4.18000 -0.03717
4.18200 -0.05893
4.18400 -0.02216
4.18600 -0.04740
4.18800 0.00309
4.19000 -0.02067
4.19200 0.10024
4.19400 0.03961
4.19600 -0.08541
4.19800 -0.01162
4.20000 0.01877
4.20200 0.04531
4.20400 -0.07793
4.20600 -0.07804
4.20800 -0.02970
4.21000 0.04624
4.21200 0.02726
4.21400 0.02393
4.21600 -0.13744
4.21800 -0.17509
4.22000 -0.04608
4.22200 -0.01325
4.22400 -0.01948
4.22600 0.00348
4.22800 -0.08369
4.23000 0.12424
4.23200 -0.08954
4.23400 0.04303
4.23600 0.06970
4.23800 -0.09730
4.24000 -0.03272
4.24200 -0.00302
4.24400 -0.03808
4.24600 -0.09346
4.24800 -0.00217
4.25000 -0.02934
4.25200 -0.04639
4.25400 0.00663
4.25600 0.01433
4.25800 -0.02605
4.26000 -0.04330
4.26200 -0.00270
4.26400 -0.10481
4.26600 -0.07085
4.26800 0.01452
4.27000 0.00700
4.27200 0.01861
4.27400 -0.07376
4.27600 -0.00735
4.27800 -0.07571
4.28000 -0.02394
4.28200 0.00600
4.28400 -0.11123
4.28600 -0.02761
4.28800 -0.05580
4.29000 -0.01289
4.29200 0.08549
4.29400 -0.03595
4.29600 0.01079
4.29800 0.05038
4.30000 -0.06571
4.30200 -0.03654
4.30400 0.00734
4.30600 -0.02009
4.30800 0.00142
4.31000 0.00631
4.31200 -0.03304
4.31400 -0.09636
4.31600 -0.10196
4.31800 -0.05409
4.32000 0.01662
4.32200 0.05164
4.32400 -0.03277
4.32600 -0.07541
4.32800 -0.07911
4.33000 -0.02160
4.33200 -0.06673
4.33400 -0.03609
4.33600 -0.01384
4.33800 0.06696
4.34000 0.05260
4.34200 -0.11328
4.34400 -0.01484
4.34600 -0.07220
4.34800 0.15521
4.35000 0.44226
4.35200 0.84727
4.35400 1.47149
4.35600 1.39527
4.35800 0.88984
4.36000 0.44913
4.36200 0.12767
4.36400 0.03271
4.36600 -0.05433
4.36800 -0.03038
4.37000 0.00134
4.37200 0.05822
4.37400 -0.06284
4.37600 -0.11078
4.37800 0.07121
4.38000 0.06966
4.38200 -0.06510
4.38400 0.11030
4.38600 0.01814
4.38800 0.03484
4.39000 -0.06047
4.39200 0.06344
4.39400 -0.04135
4.39600 -0.08347
4.39800 -0.02377
4.40000 0.06254
4.40200 0.05989
4.40400 0.05106
4.40600 -0.03570
4.40800 0.03347
4.41000 -0.03604
4.41200 0.03570
4.41400 -0.03538
4.41600 -0.05639
4.41800 -0.03630
4.42000 -0.01944
4.42200 -0.04514
4.42400 -0.00001
4.42600 -0.02465
4.42800 -0.06173
4.43000 0.03171
4.43200 -0.01996
4.43400 -0.02870
4.43600 -0.06219
4.43800 0.06246
4.44000 0.00597
4.44200 -0.08034
4.44400 0.02124
4.44600 0.03998
4.44800 -0.04883
4.45000 -0.02667
4.45200 -0.02313
4.45400 0.05997
4.45600 0.01143
4.45800 0.06257
4.46000 0.04524
4.46200 -0.02065
4.46400 -0.03321
4.46600 0.00796
4.46800 -0.06967
4.47000 0.02501
4.47200 0.00068
4.47400 0.06818
4.47600 0.01130
4.47800 -0.02959
4.48000 0.10199
4.48200 0.06034
4.48400 0.06181
4.48600 0.11435
4.48800 0.03649
4.49000 -0.03707
4.49200 0.09930
4.49400 -0.02358
4.49600 -0.01493
4.49800 -0.05082
4.50000 0.01705
4.50200 0.03601
4.50400 0.07136
4.50600 -0.01697
4.50800 -0.00770
4.51000 -0.06424
4.51200 -0.06410
4.51400 0.01552
4.51600 -0.07043
4.51800 0.00617
4.52000 0.02707
4.52200 -0.00915
4.52400 0.07245
4.52600 0.00876
4.52800 0.00469
4.53000 0.00225
4.53200 -0.06382
4.53400 0.03969
4.53600 -0.00892
4.53800 -0.01105
4.54000 0.00030
4.54200 0.01026
4.54400 0.04131
4.54600 -0.06834
4.54800 0.04388
4.55000 -0.07596
4.55200 0.00934
4.55400 0.01543
4.55600 0.00193
4.55800 0.09003
4.56000 -0.07072
4.56200 0.04058
4.56400 -0.05968
4.56600 -0.12781
4.56800 -0.11553
4.57000 -0.00673
4.57200 -0.02951
4.57400 0.09457
4.57600 0.06436
4.57800 -0.07082
4.58000 0.02653
4.58200 -0.03236
4.58400 0.01941
4.58600 0.12583
4.58800 0.00957
4.59000 -0.03250
4.59200 -0.01434
4.59400 0.00962
4.59600 -0.02627
4.59800 0.03941
4.60000 0.01920
4.60200 0.12981
4.60400 -0.09178
4.60600 -0.03354
4.60800 -0.02190
4.61000 0.01468
4.61200 0.00227
4.61400 -0.00567
4.61600 0.03454
4.61800 0.09110
4.62000 0.00634
4.62200 0.01314
4.62400 -0.10574
4.62600 -0.09390
4.62800 -0.09486
4.63000 0.00397
4.63200 -0.09520
4.63400 0.01914
4.63600 0.01231
4.63800 0.07054
4.64000 -0.07486
4.64200 0.01560
4.64400 0.02801
4.64600 -0.13135
4.64800 -0.02606
4.65000 0.02200
4.65200 -0.05101
4.65400 0.04242
4.65600 0.00916
4.65800 0.15511
4.66000 -0.07281
4.66200 0.01143
4.66400 0.00598
4.66600 -0.08796
4.66800 -0.00876
4.67000 0.09086
4.67200 -0.07452
4.67400 0.09044
4.67600 -0.03833
4.67800 -0.06959
4.68000 -0.05897
4.68200 -0.04877
4.68400 -0.01469
4.68600 -0.03982
4.68800 0.02284
4.69000 0.00829
4.69200 0.03672
4.69400 0.02593
4.69600 0.05273
4.69800 -0.01089
4.70000 -0.09380
4.70200 -0.02594
4.70400 0.04142
4.70600 0.12053
4.70800 -0.11331
4.71000 0.03516
4.71200 0.09441
4.71400 0.05660
4.71600 -0.03395
4.71800 0.01925
4.72000 -0.04342
4.72200 -0.02525
4.72400 0.04654
4.72600 0.03876
4.72800 0.01281
4.73000 -0.01677
4.73200 -0.01098
4.73400 -0.04797
4.73600 -0.06276
4.73800 -0.02571
4.74000 0.05947
4.74200 0.08313
4.74400 0.02461
4.74600 -0.00776
4.74800 0.05059
4.75000 0.01500
4.75200 0.03055
4.75400 -0.06987
4.75600 0.05079
4.75800 0.07560
4.76000 -0.05997
4.76200 -0.04629
4.76400 0.10889
4.76600 0.07022
4.76800 0.01239
4.77000 0.05043
4.77200 -0.04051
4.77400 0.02758
4.77600 -0.06495
4.77800 0.10738
4.78000 -0.05879
4.78200 -0.04768
4.78400 -0.04716
4.78600 -0.07428
4.78800 0.01833
4.79000 -0.06852
4.79200 0.16361
4.79400 -0.02211
4.79600 -0.02378
4.79800 0.08847
4.80000 0.13464
4.80200 0.03409
4.80400 -0.07934
4.80600 -0.01537
4.80800 0.06208
4.81000 -0.02048
4.81200 -0.01130
4.81400 0.05493
4.81600 0.02958
4.81800 0.12316
4.82000 0.04050
4.82200 -0.01900
4.82400 0.05549
4.82600 -0.02404
4.82800 -0.01079
4.83000 0.05258
4.83200 0.08306
4.83400 -0.00801
4.83600 0.04431
4.83800 -0.02497
4.84000 0.00695
4.84200 0.03455
4.84400 -0.03446
4.84600 0.07018
4.84800 -0.04584
4.85000 -0.07837
4.85200 0.02357
4.85400 0.02585
4.85600 0.02918
4.85800 -0.06875
4.86000 0.09650
4.86200 -0.01195
4.86400 0.04988
4.86600 -0.09362
4.86800 0.02035
4.87000 0.00324
4.87200 0.05096
4.87400 0.02071
4.87600 -0.06026
4.87800 -0.03864
4.88000 0.02664
4.88200 0.03675
4.88400 0.16657
4.88600 -0.02706
4.88800 -0.01789
4.89000 -0.08281
4.89200 -0.07080
4.89400 -0.01714
4.89600 -0.04118
4.89800 0.06587
4.90000 0.03720
4.90200 -0.02087
4.90400 -0.07280
4.90600 0.00433
4.90800 -0.04439
4.91000 0.04397
4.91200 0.01731
4.91400 -0.07419
4.91600 0.01131
4.91800 0.10692
4.92000 -0.10911
4.92200 -0.01261
4.92400 0.00337
4.92600 0.03747
4.92800 -0.02465
4.93000 -0.03628
4.93200 0.02976
4.93400 0.02331
4.93600 0.06010
4.93800 -0.00489
4.94000 0.08816
4.94200 -0.01947
4.94400 -0.01516
4.94600 -0.00436
4.94800 -0.01479
4.95000 -0.03648
4.95200 -0.08215
4.95400 0.10231
4.95600 -0.04578
4.95800 0.00158
4.96000 0.03547
4.96200 0.07801
4.96400 0.06533
4.96600 -0.00635
4.96800 -0.01917
4.97000 0.02197
4.97200 0.08939
4.97400 -0.08018
4.97600 -0.02984
4.97800 -0.02758
4.98000 -0.02372
4.98200 -0.10234
4.98400 -0.04465
4.98600 0.05747
4.98800 0.08047
4.99000 0.14416
4.99200 0.00447
4.99400 -0.10052
4.99600 0.04134
4.99800 -0.01263
5.00000 0.02166
5.00200 -0.10595
5.00400 0.01768
5.00600 0.00910
5.00800 -0.09050
5.01000 0.00115
5.01200 0.09840
5.01400 -0.01921
5.01600 -0.00533
5.01800 -0.01394
5.02000 0.00545
5.02200 0.05774
5.02400 0.02488
5.02600 0.01898
5.02800 -0.09239
5.03000 0.06679
5.03200 0.03492
5.03400 -0.03124
5.03600 -0.03068
5.03800 0.00217
5.04000 0.05172
5.04200 -0.09220
5.04400 0.01004
5.04600 -0.00289
5.04800 0.09328
5.05000 0.01106
5.05200 0.01334
5.05400 -0.05284
5.05600 -0.10587
5.05800 -0.00628
5.06000 0.03084
5.06200 0.10076
5.06400 0.07668
5.06600 0.04409
5.06800 -0.01207
5.07000 0.01183
5.07200 0.03573
5.07400 -0.00169
5.07600 0.06517
5.07800 0.04104
5.08000 -0.04769
5.08200 -0.01983
5.08400 0.10190
5.08600 -0.02512
5.08800 -0.03339
5.09000 -0.05108
5.09200 0.00264
5.09400 0.04430
5.09600 -0.05266
5.09800 0.03833
5.10000 -0.09180
5.10200 -0.01478
5.10400 0.01188
5.10600 -0.00811
5.10800 0.10800
5.11000 -0.00837
5.11200 0.03168
5.11400 -0.07361
5.11600 0.06576
5.11800 0.01688
5.12000 0.01096
5.12200 -0.00428
5.12400 0.03527
5.12600 -0.02026
5.12800 -0.01047
5.13000 0.04937
5.13200 -0.03947
5.13400 -0.01566
5.13600 -0.03096
5.13800 0.13397
5.14000 0.04594
5.14200 0.02496
5.14400 0.11394
5.14600 -0.03881
5.14800 -0.03035
5.15000 0.04606
5.15200 0.05857
5.15400 0.01874
5.15600 0.02868
5.15800 0.07658
5.16000 0.03848
5.16200 0.00725
5.16400 -0.01461
5.16600 0.01209
5.16800 0.04818
5.17000 -0.05713
5.17200 -0.11069
5.17400 -0.02099
5.17600 -0.00405
5.17800 -0.03235
5.18000 0.04756
5.18200 -0.00640
5.18400 0.01637
5.18600 -0.03212
5.18800 0.01517
5.19000 -0.01360
5.19200 0.03628
5.19400 -0.03239
5.19600 0.05190
5.19800 0.04201
5.20000 -0.02180
5.20200 0.08558
5.20400 0.01437
5.20600 -0.01800
5.20800 0.03083
5.21000 -0.00456
5.21200 0.04719
5.21400 -0.05143
5.21600 0.06341
5.21800 0.03767
5.22000 -0.00377
5.22200 0.04453
5.22400 0.05999
5.22600 0.07511
5.22800 -0.02541
5.23000 -0.10300
5.23200 -0.02792
5.23400 -0.02023
5.23600 -0.06182
5.23800 -0.03613
5.24000 -0.01399
5.24200 -0.09735
5.24400 0.09809
5.24600 0.14024
5.24800 -0.02132
5.25000 0.06048
5.25200 0.01096
5.25400 -0.05201
5.25600 -0.00044
5.25800 -0.07206
5.26000 0.15954
5.26200 -0.04721
5.26400 -0.06048
5.26600 -0.01210
5.26800 -0.01105
5.27000 0.03034
5.27200 0.06697
5.27400 0.01149
5.27600 -0.00968
5.27800 -0.06707
5.28000 0.04910
5.28200 -0.09192
5.28400 -0.07477
5.28600 -0.03260
5.28800 0.08039
5.29000 -0.05088
5.29200 0.03366
5.29400 -0.00858
5.29600 0.02030
5.29800 0.13786
5.30000 -0.07648
5.30200 -0.07040
5.30400 0.04932
5.30600 -0.00662
5.30800 0.04290
5.31000 0.08345
5.31200 -0.07527
5.31400 0.02615
5.31600 0.11525
5.31800 0.41855
5.32000 0.92255
5.32200 1.52365
5.32400 1.37249
5.32600 0.79297
5.32800 0.34238
5.33000 0.07703
5.33200 0.04304
5.33400 0.06434
5.33600 0.01013
5.33800 0.03169
5.34000 -0.02778
5.34200 -0.00304
5.34400 -0.06943
5.34600 -0.08563
5.34800 -0.00734
5.35000 0.07650
5.35200 -0.11135
5.35400 -0.06955
5.35600 -0.11259
5.35800 -0.04902
5.36000 0.08157
5.36200 0.05623
5.36400 0.05191
5.36600 -0.00157
5.36800 0.03008
5.37000 0.03051
5.37200 0.00452
5.37400 0.08696
5.37600 -0.07014
5.37800 -0.00735
5.38000 0.01527
5.38200 -0.08955
5.38400 -0.00762
5.38600 -0.04667
5.38800 0.07073
5.39000 -0.02985
5.39200 -0.06518
5.39400 -0.01095
5.39600 0.04843
5.39800 0.00384
5.40000 0.09208
5.40200 -0.03294
5.40400 -0.11872
5.40600 0.01080
5.40800 -0.02160
5.41000 0.01882
5.41200 0.06295
5.41400 0.01278
5.41600 -0.00939
5.41800 -0.03722
5.42000 -0.05221
5.42200 -0.01486
5.42400 0.04981
5.42600 0.10936
5.42800 0.03435
5.43000 0.07839
5.43200 0.04856
5.43400 0.03715
5.43600 -0.12222
5.43800 -0.01522
5.44000 -0.01561
5.44200 -0.02752
5.44400 -0.03823
5.44600 -0.05795
5.44800 0.01137
5.45000 0.02182
5.45200 -0.01109
5.45400 0.04350
5.45600 0.13170
5.45800 0.02234
5.46000 -0.00152
5.46200 -0.05135
5.46400 -0.04738
5.46600 0.06998
5.46800 0.02124
5.47000 -0.08837
5.47200 0.01912
5.47400 -0.08566
5.47600 -0.06652
5.47800 0.06376
5.48000 0.03448
5.48200 0.03409
5.48400 -0.11987
5.48600 0.03761
5.48800 0.07372
5.49000 -0.04382
5.49200 0.04059
5.49400 -0.05412
5.49600 -0.01998
5.49800 -0.00660
5.50000 -0.07730
5.50200 -0.06865
5.50400 0.04743
5.50600 -0.07638
5.50800 -0.00118
5.51000 0.00601
5.51200 0.03532
5.51400 0.00875
5.51600 -0.08483
5.51800 0.02208
5.52000 -0.08188
5.52200 0.04977
5.52400 -0.10513
5.52600 -0.01957
5.52800 -0.04808
5.53000 -0.07995
5.53200 -0.06174
5.53400 -0.09280
5.53600 -0.07714
5.53800 -0.09449
5.54000 0.00822
5.54200 -0.08849
5.54400 -0.06501
5.54600 0.11260
5.54800 0.07366
5.55000 -0.01904
5.55200 -0.02087
5.55400 0.08794
5.55600 -0.03610
5.55800 -0.01857
5.56000 0.06388
5.56200 -0.10348
5.56400 0.06522
5.56600 -0.06732
5.56800 -0.06393
5.57000 -0.00269
5.57200 0.03935
5.57400 0.05076
5.57600 -0.15063
5.57800 -0.00998
5.58000 0.03105
5.58200 0.02166
5.58400 0.02066
5.58600 -0.00620
5.58800 0.08348
5.59000 -0.00642
5.59200 -0.02134
5.59400 0.09661
5.59600 0.01674
5.59800 0.07710
5.60000 0.02482
5.60200 0.02914
5.60400 0.04966
5.60600 -0.18472
5.60800 0.03566
5.61000 -0.01671
5.61200 0.08606
5.61400 -0.12821
5.61600 -0.02068
5.61800 -0.04780
5.62000 0.11757
5.62200 0.11818
5.62400 -0.13592
5.62600 0.02539
5.62800 0.08021
5.63000 0.06942
5.63200 -0.04454
5.63400 0.07028
5.63600 -0.06994
5.63800 0.09650
5.64000 0.09316
5.64200 -0.07467
5.64400 -0.05879
5.64600 0.11348
5.64800 0.07742
5.65000 0.00927
5.65200 0.06342
5.65400 -0.10492
5.65600 0.03603
5.65800 -0.04078
5.66000 0.01455
5.66200 0.06069
5.66400 -0.01922
5.66600 0.05127
5.66800 -0.05501
5.67000 0.00185
5.67200 0.04430
5.67400 0.01088
5.67600 -0.02831
5.67800 0.01513
5.68000 -0.04074
5.68200 0.02901
5.68400 -0.01270
5.68600 0.09167
5.68800 0.03314
5.69000 0.05899
5.69200 -0.02923
5.69400 0.08656
5.69600 0.05471
5.69800 0.10457
5.70000 -0.00359
5.70200 -0.06949
5.70400 0.01517
5.70600 -0.04309
5.70800 0.00854
5.71000 0.06637
5.71200 0.00200
5.71400 0.03916
5.71600 0.00672
5.71800 -0.00639
5.72000 0.05182
5.72200 -0.01536
5.72400 0.10200
5.72600 -0.00839
5.72800 -0.00238
5.73000 -0.13101
5.73200 -0.09784
5.73400 0.01219
5.73600 -0.00992
5.73800 0.01130
5.74000 0.07147
5.74200 -0.12329
5.74400 0.03087
5.74600 -0.12275
5.74800 -0.05391
5.75000 -0.02021
5.75200 0.05926
5.75400 -0.06795
5.75600 0.06755
5.75800 -0.00300
5.76000 0.04244
5.76200 0.05983
5.76400 -0.00231
5.76600 -0.17803
5.76800 0.06365
5.77000 -0.01163
5.77200 0.07335
5.77400 -0.03376
5.77600 -0.04023
5.77800 0.01271
5.78000 0.04149
5.78200 0.02637
5.78400 0.00297
5.78600 0.02211
5.78800 -0.06557
5.79000 -0.09898
5.79200 -0.10522
5.79400 -0.12984
5.79600 0.02556
5.79800 0.00281
5.80000 0.03629
5.80200 0.01196
5.80400 0.12182
5.80600 -0.06325
5.80800 -0.04859
5.81000 -0.10995
5.81200 0.13341
5.81400 0.06689
5.81600 -0.05990
5.81800 -0.10600
5.82000 -0.13543
5.82200 -0.03752
5.82400 0.11412
5.82600 0.08097
5.82800 -0.00888
5.83000 -0.06505
5.83200 0.08319
5.83400 0.00370
5.83600 0.07871
5.83800 0.02448
5.84000 0.02054
5.84200 0.02438
5.84400 -0.04407
5.84600 0.04965
5.84800 -0.00153
5.85000 -0.08019
5.85200 0.10728
5.85400 0.03573
5.85600 -0.05821
5.85800 0.07945
5.86000 -0.02165
5.86200 0.00809
5.86400 0.02721
5.86600 0.03395
5.86800 0.00042
5.87000 -0.08978
5.87200 -0.01912
5.87400 0.00386
5.87600 0.05496
5.87800 -0.05304
5.88000 -0.02324
5.88200 0.09896
5.88400 -0.07037
5.88600 0.00448
5.88800 -0.06539
5.89000 -0.07201
5.89200 -0.05703
5.89400 0.04517
5.89600 0.02566
5.89800 -0.00708
5.90000 0.02386
5.90200 0.04828
5.90400 -0.01764
5.90600 0.02248
5.90800 0.01517
5.91000 0.06304
5.91200 0.01947
5.91400 -0.00528
5.91600 -0.04695
5.91800 0.18309
5.92000 -0.03908
5.92200 -0.02687
5.92400 -0.02576
5.92600 -0.09223
5.92800 0.01173
5.93000 -0.01188
5.93200 -0.06787
5.93400 0.02367
5.93600 0.05200
5.93800 -0.04923
5.94000 -0.00218
5.94200 -0.11561
5.94400 -0.07723
5.94600 0.04786
5.94800 -0.06156
5.95000 -0.01630
5.95200 -0.02341
5.95400 -0.03380
5.95600 -0.01435
5.95800 -0.01635
5.96000 -0.00042
5.96200 -0.00770
5.96400 -0.00503
5.96600 -0.07665
5.96800 -0.08330
5.97000 0.05285
5.97200 0.10670
5.97400 -0.09296
5.97600 -0.01726
5.97800 -0.02304
5.98000 -0.06337
5.98200 0.01131
5.98400 0.01849
5.98600 0.08054
5.98800 -0.07962
5.99000 0.01983
5.99200 -0.03154
5.99400 -0.01443
5.99600 0.00188
5.99800 -0.00696
6.00000 0.06967
6.00200 -0.01341
6.00400 0.04012
6.00600 -0.14173
6.00800 -0.00835
6.01000 0.06072
6.01200 -0.05639
6.01400 -0.04684
6.01600 0.03805
6.01800 0.03374
6.02000 0.08551
6.02200 0.00765
6.02400 -0.01430
6.02600 -0.08722
6.02800 0.09848
6.03000 -0.07362
6.03200 -0.09241
6.03400 -0.02359
6.03600 0.05615
6.03800 -0.04665
6.04000 -0.00681
6.04200 -0.12856
6.04400 0.01931
6.04600 0.02981
6.04800 0.07799
6.05000 0.02724
6.05200 -0.04814
6.05400 0.08178
6.05600 -0.13732
6.05800 0.01943
6.06000 0.03277
6.06200 0.07709
6.06400 0.02827
6.06600 0.01637
6.06800 -0.07527
6.07000 -0.02589
6.07200 0.04721
6.07400 -0.04838
6.07600 -0.00583
6.07800 -0.03568
6.08000 -0.00409
6.08200 0.04260
6.08400 0.02222
6.08600 0.10317
6.08800 -0.04094
6.09000 -0.02316
6.09200 0.00075
6.09400 0.03825
6.09600 -0.00665
6.09800 -0.05080
6.10000 -0.03793
6.10200 -0.03139
6.10400 -0.03835
6.10600 0.00260
6.10800 -0.04504
6.11000 -0.08842
6.11200 -0.06824
6.11400 0.03104
6.11600 -0.01407
6.11800 0.08033
6.12000 -0.01993
6.12200 0.05104
6.12400 0.01651
6.12600 -0.02257
6.12800 -0.03389
6.13000 -0.05106
6.13200 0.05332
6.13400 0.02354
6.13600 0.01191
6.13800 0.03645
6.14000 -0.05026
6.14200 0.07215
6.14400 0.07934
6.14600 -0.00036
6.14800 0.04798
6.15000 -0.09068
6.15200 -0.02651
6.15400 -0.04836
6.15600 -0.03913
6.15800 0.08154
6.16000 0.01795
6.16200 0.05728
6.16400 -0.01085
6.16600 -0.01447
6.16800 0.00373
6.17000 0.01574
6.17200 -0.12633
6.17400 -0.05439
6.17600 -0.11672
6.17800 -0.03581
6.18000 0.11349
6.18200 -0.00470
6.18400 -0.10882
6.18600 0.03781
6.18800 -0.04399
6.19000 -0.07373
6.19200 0.03418
6.19400 -0.03320
6.19600 -0.06530
6.19800 0.05512
6.20000 0.10042
6.20200 -0.00696
6.20400 0.04933
6.20600 -0.06036
6.20800 -0.01305
6.21000 -0.06822
6.21200 -0.01065
6.21400 0.02445
6.21600 -0.06698
6.21800 -0.05520
6.22000 -0.04696
6.22200 -0.07980
6.22400 0.08131
6.22600 0.09136
6.22800 -0.03029
6.23000 0.00946
6.23200 0.07296
6.23400 0.00228
6.23600 0.05653
6.23800 -0.16769
6.24000 -0.10337
6.24200 -0.00960
6.24400 0.02155
6.24600 0.03261
6.24800 0.04206
6.25000 -0.01520
6.25200 0.02709
6.25400 0.00700
6.25600 0.03205
6.25800 -0.06052
6.26000 -0.00663
6.26200 -0.01564
6.26400 0.00962
6.26600 -0.07085
6.26800 0.07237
6.27000 0.00826
6.27200 -0.09789
6.27400 -0.01307
6.27600 -0.02911
6.27800 -0.04139
6.28000 0.00352
6.28200 -0.01798
6.28400 0.24810
6.28600 0.60909
6.28800 1.13976
6.29000 1.45462
6.29200 1.33595
6.29400 0.66844
6.29600 0.27234
6.29800 0.07074
6.30000 0.04786
6.30200 -0.02198
6.30400 0.12510
6.30600 0.05485
6.30800 0.01291
6.31000 0.00328
6.31200 -0.05778
6.31400 -0.01378
6.31600 0.02459
6.31800 -0.08292
6.32000 -0.01637
6.32200 -0.03362
6.32400 -0.01446
6.32600 -0.04878
6.32800 -0.00990
6.33000 -0.02519
6.33200 -0.12697
6.33400 -0.02614
6.33600 0.08822
6.33800 -0.08095
6.34000 -0.05038
6.34200 -0.00519
6.34400 -0.02849
6.34600 -0.00499
6.34800 -0.10286
6.35000 0.01874
6.35200 -0.10858
6.35400 -0.00892
6.35600 -0.07702
6.35800 -0.05291
6.36000 -0.02019
6.36200 -0.08624
6.36400 0.07464
6.36600 -0.09724
6.36800 0.08003
6.37000 0.14410
6.37200 0.02514
6.37400 -0.00670
6.37600 -0.01427
6.37800 0.11268
6.38000 0.02539
6.38200 -0.02090
6.38400 0.00134
6.38600 0.11708
6.38800 0.03577
6.39000 0.00398
6.39200 0.05978
6.39400 -0.00943
6.39600 -0.01106
6.39800 0.08371
6.40000 0.04651
6.40200 -0.04687
6.40400 -0.02614
6.40600 0.03262
6.40800 0.05666
6.41000 0.03112
6.41200 -0.15372
6.41400 -0.06847
6.41600 -0.01397
6.41800 0.01042
6.42000 0.00712
6.42200 0.06019
6.42400 0.06831
6.42600 0.00936
6.42800 0.01867
6.43000 0.11689
6.43200 0.11881
6.43400 0.08644
6.43600 -0.02213
6.43800 -0.07510
6.44000 0.10696
6.44200 -0.06219
6.44400 -0.02866
6.44600 -0.00690
6.44800 -0.04397
6.45000 -0.04912
6.45200 0.01686
6.45400 0.12011
6.45600 0.06109
6.45800 0.04976
6.46000 -0.03439
6.46200 -0.09545
6.46400 -0.05856
6.46600 0.04785
6.46800 0.06508
6.47000 0.12151
6.47200 -0.00826
6.47400 0.07054
6.47600 -0.01527
6.47800 0.06122
6.48000 -0.04751
6.48200 -0.01434
6.48400 0.00834
6.48600 0.04376
6.48800 -0.10008
6.49000 -0.03938
6.49200 0.05082
6.49400 -0.02787
6.49600 0.01501
6.49800 0.09127
6.50000 -0.02574
6.50200 -0.02425
6.50400 0.01466
6.50600 -0.11703
6.50800 0.09162
6.51000 -0.04656
6.51200 -0.00314
6.51400 -0.01641
6.51600 0.02504
6.51800 -0.01635
6.52000 -0.00475
6.52200 0.03605
6.52400 0.04963
6.52600 0.02419
6.52800 -0.02049
6.53000 -0.03138
6.53200 0.01706
6.53400 0.08653
6.53600 -0.09960
6.53800 0.01380
6.54000 0.00463
6.54200 -0.19119
6.54400 0.00146
6.54600 0.05759
6.54800 0.02197
6.55000 -0.00255
6.55200 -0.02994
6.55400 0.01947
6.55600 0.01658
6.55800 -0.07875
6.56000 -0.02261
6.56200 0.00303
6.56400 0.03665
6.56600 0.03239
6.56800 -0.01631
6.57000 0.02413
6.57200 0.01177
6.57400 0.04052
6.57600 0.07732
6.57800 -0.12633
6.58000 -0.15932
6.58200 -0.03219
6.58400 0.07091
6.58600 0.06671
6.58800 0.02557
6.59000 0.05626
6.59200 -0.05996
6.59400 -0.01827
6.59600 -0.00961
6.59800 -0.02082
6.60000 -0.03590
6.60200 0.10171
6.60400 0.05733
6.60600 -0.06544
6.60800 0.07973
6.61000 0.00291
6.61200 0.06922
6.61400 -0.03143
6.61600 0.00096
6.61800 -0.05805
6.62000 0.02961
6.62200 -0.09553
6.62400 -0.09449
6.62600 -0.05968
6.62800 -0.02235
6.63000 0.09700
6.63200 0.09560
6.63400 0.04728
6.63600 0.00223
6.63800 -0.01477
6.64000 0.04073
6.64200 0.03528
6.64400 0.03120
6.64600 0.01875
6.64800 -0.02275
6.65000 -0.03679
6.65200 -0.00580
6.65400 0.11585
6.65600 0.00020
6.65800 0.03147
6.66000 0.01272
6.66200 0.07679
6.66400 0.07144
6.66600 0.01097
6.66800 -0.03329
6.67000 -0.13920
6.67200 0.03023
6.67400 -0.04388
6.67600 -0.10976
6.67800 0.05024
6.68000 -0.07683
6.68200 0.10890
6.68400 -0.02447
6.68600 -0.02302
6.68800 -0.02551
6.69000 0.05373
6.69200 0.00024
6.69400 0.06782
6.69600 -0.02273
6.69800 -0.00701
6.70000 0.02785
6.70200 0.00810
6.70400 -0.04421
6.70600 -0.02744
6.70800 0.03433
6.71000 -0.02457
6.71200 -0.04912
6.71400 0.00702
6.71600 -0.12549
6.71800 0.03272
6.72000 0.04895
6.72200 -0.04232
6.72400 0.03845
6.72600 0.03442
6.72800 0.03794
6.73000 -0.02597
6.73200 0.04060
6.73400 -0.03845
6.73600 0.05071
6.73800 0.06556
6.74000 -0.05076
6.74200 -0.08710
6.74400 0.03777
6.74600 -0.07798
6.74800 -0.09495
6.75000 0.00388
6.75200 -0.06804
6.75400 -0.05333
6.75600 0.09489
6.75800 -0.08392
6.76000 -0.09289
6.76200 0.03418
6.76400 -0.00084
6.76600 0.05843
6.76800 -0.10279
6.77000 -0.01471
6.77200 0.03755
6.77400 0.05147
6.77600 0.12321
6.77800 0.07607
6.78000 -0.18513
6.78200 -0.03399
6.78400 0.05436
6.78600 -0.05469
6.78800 0.03263
6.79000 0.03170
6.79200 -0.11257
6.79400 -0.17304
6.79600 -0.00921
6.79800 -0.05827
6.80000 0.03303
6.80200 0.04668
6.80400 -0.01962
6.80600 0.05496
6.80800 -0.01614
6.81000 -0.04092
6.81200 -0.07203
6.81400 0.03734
6.81600 -0.07316
6.81800 -0.09263
6.82000 -0.03129
6.82200 0.05010
6.82400 0.05222
6.82600 -0.02874
6.82800 0.04356
6.83000 -0.01780
6.83200 0.06765
6.83400 0.06731
6.83600 0.03766
6.83800 -0.00173
6.84000 -0.05711
6.84200 -0.07185
6.84400 0.02917
6.84600 0.07858
6.84800 0.01553
6.85000 0.07723
6.85200 0.09073
6.85400 0.13056
6.85600 -0.00057
6.85800 -0.03285
6.86000 0.09105
6.86200 0.09540
6.86400 0.10740
6.86600 0.08292
6.86800 0.07547
6.87000 0.02240
6.87200 0.09205
6.87400 -0.05069
6.87600 -0.06894
6.87800 -0.04568
6.88000 -0.02430
6.88200 0.03228
6.88400 0.05399
6.88600 -0.10914
6.88800 0.04485
6.89000 -0.03785
6.89200 0.04813
6.89400 0.09009
6.89600 0.15742
6.89800 -0.01845
6.90000 -0.04710
6.90200 0.08432
6.90400 -0.02476
6.90600 -0.07152
6.90800 0.05471
6.91000 0.03745
6.91200 0.04691
6.91400 -0.08040
6.91600 -0.06349
6.91800 -0.01579
6.92000 -0.06637
6.92200 0.13896
6.92400 -0.02769
6.92600 -0.08396
6.92800 0.07294
6.93000 -0.09814
6.93200 -0.07196
6.93400 -0.00226
6.93600 0.02944
6.93800 0.14709
6.94000 0.05927
6.94200 0.02438
6.94400 -0.04188
6.94600 0.06395
6.94800 -0.01767
6.95000 0.10054
6.95200 0.03636
6.95400 -0.06073
6.95600 0.05694
6.95800 -0.10581
6.96000 -0.06179
6.96200 0.07283
6.96400 0.06021
6.96600 0.05191
6.96800 -0.00566
6.97000 -0.02453
6.97200 -0.04041
6.97400 0.02428
6.97600 -0.02648
6.97800 0.05514
6.98000 -0.10397
6.98200 0.04496
6.98400 0.00912
6.98600 -0.09491
6.98800 0.03229
6.99000 -0.07098
6.99200 -0.00259
6.99400 -0.01616
6.99600 -0.07573
6.99800 0.09531
7.00000 0.01065
7.00200 -0.17611
7.00400 0.01547
7.00600 0.07459
7.00800 -0.00381
7.01000 -0.02004
7.01200 -0.02552
7.01400 0.03394
7.01600 -0.00780
7.01800 -0.06002
7.02000 -0.00002
7.02200 -0.07538
7.02400 0.15981
7.02600 0.01348
7.02800 -0.07194
7.03000 0.10747
7.03200 -0.05847
7.03400 -0.13901
7.03600 0.06013
7.03800 0.14733
7.04000 -0.03504
7.04200 -0.01098
7.04400 0.04224
7.04600 -0.15555
7.04800 -0.08241
7.05000 -0.06805
7.05200 -0.01917
7.05400 0.07028
7.05600 0.03349
7.05800 0.05239
7.06000 0.12833
7.06200 -0.04528
7.06400 0.01886
7.06600 0.02308
7.06800 0.11234
7.07000 0.04891
7.07200 -0.04030
7.07400 -0.01183
7.07600 -0.02262
7.07800 0.00249
7.08000 0.04121
7.08200 0.05523
7.08400 -0.03071
7.08600 -0.02589
7.08800 -0.06379
7.09000 0.02686
7.09200 -0.06939
7.09400 0.04602
7.09600 -0.02208
7.09800 -0.04353
7.10000 -0.01310
7.10200 0.03407
7.10400 -0.06819
7.10600 0.01308
7.10800 -0.01195
7.11000 0.06712
7.11200 0.15115
7.11400 -0.09973
7.11600 -0.02691
7.11800 -0.03506
7.12000 -0.01139
7.12200 -0.09153
7.12400 0.00694
7.12600 0.02602
7.12800 0.17871
7.13000 -0.04671
7.13200 0.02966
7.13400 0.00641
7.13600 -0.04757
7.13800 -0.08788
7.14000 -0.04166
7.14200 0.09472
7.14400 0.04920
7.14600 -0.03249
7.14800 0.01241
7.15000 0.02501
7.15200 0.05304
7.15400 -0.04885
7.15600 0.02045
7.15800 -0.04480
7.16000 -0.04079
7.16200 0.08506
7.16400 -0.01838
7.16600 -0.05742
7.16800 -0.07115
7.17000 -0.09037
7.17200 0.04534
7.17400 -0.03523
7.17600 -0.01443
7.17800 -0.03586
7.18000 0.00342
7.18200 0.04500
7.18400 0.02703
7.18600 0.06166
7.18800 0.03924
7.19000 -0.03547
7.19200 0.05203
7.19400 -0.11137
7.19600 -0.01364
7.19800 0.00815
7.20000 0.03766
7.20200 -0.02205
7.20400 0.06406
7.20600 -0.00040
7.20800 -0.03815
7.21000 0.08795
7.21200 0.04932
7.21400 -0.01836
7.21600 0.03210
7.21800 -0.07047
7.22000 0.00097
7.22200 -0.09983
7.22400 0.01750
7.22600 0.02990
7.22800 0.02428
7.23000 0.06888
7.23200 -0.12357
7.23400 0.10316
7.23600 0.07333
7.23800 0.00778
7.24000 -0.04991
7.24200 -0.05356
7.24400 0.00000
7.24600 -0.03705
7.24800 -0.02081
7.25000 0.11566
7.25200 0.17140
7.25400 0.57424
7.25600 1.14817
7.25800 1.52839
7.26000 1.19017
7.26200 0.63596
7.26400 0.14487
7.26600 0.01423
7.26800 0.02047
7.27000 0.04642
7.27200 -0.00569
7.27400 -0.05090
7.27600 -0.07205
7.27800 0.02323
7.28000 -0.09787
7.28200 0.03632
7.28400 0.06310
7.28600 -0.00013
7.28800 0.05262
7.29000 -0.11816
7.29200 -0.00601
7.29400 -0.01433
7.29600 -0.03811
7.29800 0.01322
7.30000 0.05147
7.30200 -0.09869
7.30400 -0.02312
7.30600 -0.00942
7.30800 -0.10610
7.31000 -0.04016
7.31200 -0.01713
7.31400 -0.01012
7.31600 0.00191
7.31800 -0.01686
7.32000 -0.00481
7.32200 0.07725
7.32400 -0.01086
7.32600 0.13032
7.32800 -0.02499
7.33000 -0.01300
7.33200 -0.05799
7.33400 -0.03420
7.33600 -0.06518
7.33800 0.06752
7.34000 0.15261
7.34200 0.03399
7.34400 -0.12359
7.34600 0.00522
7.34800 0.05426
7.35000 0.14258
7.35200 -0.03321
7.35400 -0.03718
7.35600 0.06439
7.35800 0.05530
7.36000 -0.04930
7.36200 0.06913
7.36400 0.03164
7.36600 -0.03665
7.36800 0.10240
7.37000 0.09260
7.37200 0.00401
7.37400 -0.03154
7.37600 0.04348
7.37800 -0.01312
7.38000 -0.04200
7.38200 -0.06896
7.38400 -0.09220
7.38600 0.02988
7.38800 0.07734
7.39000 -0.05804
7.39200 0.00231
7.39400 0.05096
7.39600 0.09167
7.39800 -0.07508
7.40000 -0.05530
7.40200 -0.06805
7.40400 -0.06675
7.40600 0.06691
7.40800 -0.01576
7.41000 -0.05760
7.41200 0.08181
7.41400 0.07146
7.41600 -0.01342
7.41800 0.13569
7.42000 -0.07456
7.42200 -0.01576
7.42400 -0.03133
7.42600 -0.06035
7.42800 -0.03180
7.43000 -0.00487
7.43200 -0.02193
7.43400 -0.07766
7.43600 0.04438
7.43800 0.02025
7.44000 -0.02604
7.44200 0.01878
7.44400 -0.05931
7.44600 -0.03331
7.44800 0.13120
7.45000 -0.02056
7.45200 -0.05185
7.45400 -0.00380
7.45600 0.01381
7.45800 -0.01415
7.46000 -0.07039
7.46200 0.14694
7.46400 0.06076
7.46600 0.01999
7.46800 -0.04877
7.47000 0.06504
7.47200 0.00900
7.47400 0.07715
7.47600 -0.00067
7.47800 -0.02099
7.48000 0.00575
7.48200 -0.00363
7.48400 -0.06353
7.48600 -0.02456
7.48800 -0.14099
7.49000 0.03423
7.49200 -0.06367
7.49400 -0.11314
7.49600 -0.06333
7.49800 -0.00859
7.50000 0.01879
7.50200 -0.08357
7.50400 -0.00732
7.50600 -0.01493
7.50800 -0.06124
7.51000 0.03922
7.51200 0.07594
7.51400 0.00398
7.51600 -0.07631
7.51800 -0.01750
7.52000 0.05861
7.52200 -0.06410
7.52400 0.01913
7.52600 -0.03657
7.52800 0.03557
7.53000 0.04481
7.53200 0.00534
7.53400 0.03888
7.53600 0.00274
7.53800 -0.04315
7.54000 0.02407
7.54200 0.02418
7.54400 0.03570
7.54600 -0.00916
7.54800 -0.02013
7.55000 -0.06929
7.55200 -0.09811
7.55400 -0.04370
7.55600 -0.11930
7.55800 0.12011
7.56000 0.04150
7.56200 -0.03825
7.56400 -0.06612
7.56600 -0.03918
7.56800 0.03533
7.57000 0.00942
7.57200 -0.14044
7.57400 -0.01868
7.57600 0.01080
7.57800 0.01807
7.58000 -0.01472
7.58200 0.12325
7.58400 0.07603
7.58600 -0.05428
7.58800 0.04425
7.59000 0.03345
7.59200 0.00621
7.59400 -0.03965
7.59600 -0.11694
7.59800 -0.07587
7.60000 0.08575
7.60200 0.07345
7.60400 -0.11295
7.60600 -0.06012
7.60800 0.02174
7.61000 -0.03510
7.61200 -0.09684
7.61400 -0.01904
7.61600 0.05264
7.61800 0.00912
7.62000 0.01282
7.62200 0.03269
7.62400 -0.00399
7.62600 0.09570
7.62800 -0.01132
7.63000 -0.10682
7.63200 0.00603
7.63400 0.02995
7.63600 0.06137
7.63800 -0.02948
7.64000 0.01607
7.64200 -0.02607
7.64400 -0.05229
7.64600 0.00205
7.64800 0.03337
7.65000 0.01823
7.65200 0.06328
7.65400 -0.01898
7.65600 -0.07410
7.65800 0.05419
7.66000 0.00555
7.66200 -0.04741
7.66400 0.05512
7.66600 0.07753
7.66800 0.01714
7.67000 -0.10384
7.67200 0.06118
7.67400 -0.01738
7.67600 0.06317
7.67800 -0.15399
7.68000 0.08927
7.68200 0.03392
7.68400 -0.08743
7.68600 0.09145
7.68800 -0.00533
7.69000 -0.06316
7.69200 0.09112
7.69400 0.09897
7.69600 -0.06662
7.69800 -0.06408
7.70000 0.03592
7.70200 0.01684
7.70400 0.11697
7.70600 0.04277
7.70800 -0.01234
7.71000 0.13361
7.71200 -0.03758
7.71400 0.07918
7.71600 0.05904
7.71800 -0.05679
7.72000 -0.08606
7.72200 -0.11136
7.72400 0.01533
7.72600 0.02179
7.72800 0.14933
7.73000 -0.02937
7.73200 -0.00883
7.73400 0.01525
7.73600 0.00098
7.73800 0.01510
7.74000 -0.00142
7.74200 -0.01985
7.74400 0.00769
7.74600 -0.03293
7.74800 -0.08379
7.75000 0.03641
7.75200 -0.02808
7.75400 -0.05361
7.75600 0.06020
7.75800 -0.02566
7.76000 -0.04985
7.76200 0.02570
7.76400 -0.06092
7.76600 -0.07453
7.76800 -0.00202
7.77000 0.05580
7.77200 -0.01621
7.77400 -0.01286
7.77600 0.10009
7.77800 -0.00013
7.78000 -0.01171
7.78200 0.04346
7.78400 0.03899
7.78600 -0.12372
7.78800 -0.04401
7.79000 0.11116
7.79200 0.02865
7.79400 -0.00998
7.79600 0.12240
7.79800 0.07673
7.80000 -0.00805
7.80200 0.05885
7.80400 0.01625
7.80600 0.02940
7.80800 -0.01951
7.81000 -0.13980
7.81200 -0.07729
7.81400 -0.10128
7.81600 -0.06289
7.81800 -0.08020
7.82000 -0.04301
7.82200 0.03938
7.82400 0.05351
7.82600 -0.00725
7.82800 -0.09488
7.83000 0.11581
7.83200 -0.01280
7.83400 -0.02476
7.83600 -0.06263
7.83800 0.01132
7.84000 -0.09529
7.84200 -0.03200
7.84400 0.04645
7.84600 -0.07132
7.84800 -0.12233
7.85000 0.04490
7.85200 0.07147
7.85400 -0.08624
7.85600 0.08791
7.85800 -0.02644
7.86000 -0.07438
7.86200 -0.09684
7.86400 0.08160
7.86600 0.03438
7.86800 -0.10146
7.87000 -0.02962
7.87200 -0.03541
7.87400 0.07303
7.87600 -0.00985
7.87800 0.12164
7.88000 0.03684
7.88200 0.05051
7.88400 0.07794
7.88600 -0.05178
7.88800 0.04719
7.89000 -0.02394
7.89200 -0.09288
7.89400 0.01543
7.89600 0.04045
7.89800 0.04892
7.90000 -0.02232
7.90200 -0.05562
7.90400 0.05373
7.90600 -0.03605
7.90800 0.03258
7.91000 -0.09326
7.91200 0.04162
7.91400 0.01392
7.91600 -0.01750
7.91800 -0.00422
7.92000 0.00187
7.92200 0.00926
7.92400 -0.01217
7.92600 0.03070
7.92800 -0.00806
7.93000 -0.13448
7.93200 -0.12774
7.93400 0.07187
7.93600 -0.08018
7.93800 -0.12648
7.94000 0.12239
7.94200 0.10321
7.94400 0.13668
7.94600 -0.08470
7.94800 0.07970
7.95000 0.00749
7.95200 0.07172
7.95400 -0.02169
7.95600 -0.03448
7.95800 -0.00280
7.96000 0.10892
7.96200 0.11111
7.96400 -0.00127
7.96600 0.04854
7.96800 0.04329
7.97000 0.11609
7.97200 0.11767
7.97400 -0.00544
7.97600 0.03768
7.97800 -0.01418
7.98000 -0.03422
7.98200 0.00773
7.98400 0.02463
7.98600 -0.07023
7.98800 -0.00432
7.99000 -0.03747
7.99200 -0.03661
7.99400 -0.07195
7.99600 0.04406
7.99800 0.05192
8.00000 0.03797
8.00200 -0.03045
8.00400 0.04366
8.00600 -0.01724
8.00800 0.03278
8.01000 0.06403
8.01200 -0.07043
8.01400 0.11592
8.01600 0.05110
8.01800 -0.00966
8.02000 0.03868
8.02200 0.01243
8.02400 -0.05839
8.02600 -0.00621
8.02800 0.00999
8.03000 0.06258
8.03200 0.03332
8.03400 -0.05006
8.03600 0.10636
8.03800 -0.02330
8.04000 -0.08335
8.04200 -0.08255
8.04400 -0.04316
8.04600 0.06768
8.04800 -0.02583
8.05000 0.00128
8.05200 -0.04427
8.05400 -0.08191
8.05600 0.07259
8.05800 -0.04354
8.06000 -0.03934
8.06200 0.09003
8.06400 -0.09503
8.06600 -0.07910
8.06800 -0.01457
8.07000 0.00076
8.07200 0.01806
8.07400 0.10811
8.07600 0.02874
8.07800 0.02991
8.08000 0.04135
8.08200 0.04444
8.08400 0.05045
8.08600 -0.08283
8.08800 0.01012
8.09000 -0.04883
8.09200 -0.05907
8.09400 0.08034
8.09600 0.09069
8.09800 0.07076
8.10000 0.03202
8.10200 -0.02229
8.10400 0.00301
8.10600 0.09476
8.10800 0.11125
8.11000 0.03471
8.11200 -0.00928
8.11400 -0.01607
8.11600 0.03267
8.11800 0.00042
8.12000 0.02048
8.12200 -0.05351
8.12400 0.02571
8.12600 0.11566
8.12800 -0.12263
8.13000 -0.01700
8.13200 0.04618
8.13400 -0.01281
8.13600 -0.05605
8.13800 -0.10796
8.14000 -0.11563
8.14200 0.05684
8.14400 -0.00858
8.14600 -0.01383
8.14800 -0.06827
8.15000 -0.05313
8.15200 0.01425
8.15400 0.02822
8.15600 0.01599
8.15800 0.02365
8.16000 0.06650
8.16200 -0.07905
8.16400 -0.08269
8.16600 0.02967
8.16800 0.00847
8.17000 -0.02168
8.17200 0.11488
8.17400 -0.07361
8.17600 -0.00119
8.17800 -0.03686
8.18000 0.00741
8.18200 0.00199
8.18400 0.00226
8.18600 -0.04783
8.18800 -0.05907
8.19000 0.07894
8.19200 -0.04815
8.19400 0.01433
8.19600 -0.03397
8.19800 0.02917
8.20000 -0.00173
8.20200 0.03358
8.20400 0.10139
8.20600 -0.06913
8.20800 0.06461
8.21000 -0.08848
8.21200 0.04633
8.21400 0.01040
8.21600 0.08419
8.21800 0.00575
8.22000 0.26837
8.22200 0.65133
8.22400 1.36361
8.22600 1.59192
8.22800 1.14705
8.23000 0.53756
8.23200 0.32161
8.23400 0.06714
8.23600 0.09072
8.23800 -0.02108
8.24000 -0.17365
8.24200 0.01389
8.24400 0.08592
8.24600 -0.00380
8.24800 -0.01845
8.25000 0.01386
8.25200 -0.06299
8.25400 0.03414
8.25600 -0.00520
8.25800 -0.01330
8.26000 -0.03634
8.26200 0.03246
8.26400 0.02484
8.26600 0.18411
8.26800 0.12380
8.27000 -0.05428
8.27200 -0.06845
8.27400 -0.02613
8.27600 0.00157
8.27800 0.05363
8.28000 -0.03215
8.28200 -0.07936
8.28400 0.06373
8.28600 0.03104
8.28800 -0.00408
8.29000 0.07409
8.29200 0.04203
8.29400 0.02522
8.29600 -0.00728
8.29800 0.10120
8.30000 -0.11339
8.30200 -0.09628
8.30400 0.11518
8.30600 -0.01607
8.30800 -0.03247
8.31000 -0.00546
8.31200 -0.01074
8.31400 0.08838
8.31600 -0.03487
8.31800 -0.02122
8.32000 -0.05297
8.32200 -0.04190
8.32400 -0.08791
8.32600 -0.02706
8.32800 0.03849
8.33000 -0.04092
8.33200 -0.08761
8.33400 -0.04944
8.33600 0.02180
8.33800 0.09263
8.34000 0.11486
8.34200 0.02568
8.34400 -0.08064
8.34600 -0.02939
8.34800 -0.05756
8.35000 -0.11040
8.35200 0.01606
8.35400 -0.10565
8.35600 -0.08568
8.35800 0.01971
8.36000 0.02602
8.36200 0.00019
8.36400 -0.08119
8.36600 -0.07959
8.36800 -0.02199
8.37000 -0.00765
8.37200 0.07990
8.37400 0.07748
8.37600 -0.05217
8.37800 -0.10344
8.38000 -0.11079
8.38200 0.05474
8.38400 -0.05173
8.38600 0.00302
8.38800 -0.10949
8.39000 -0.13288
8.39200 -0.12687
8.39400 0.05875
8.39600 0.03374
8.39800 -0.13411
8.40000 -0.02897
8.40200 -0.04313
8.40400 0.06453
8.40600 0.09266
8.40800 0.01509
8.41000 0.11194
8.41200 -0.08468
8.41400 -0.05939
8.41600 -0.09077
8.41800 0.02400
8.42000 -0.03814
8.42200 0.03587
8.42400 -0.02678
8.42600 0.02988
8.42800 -0.00195
8.43000 0.01201
8.43200 0.02709
8.43400 0.05254
8.43600 0.13696
8.43800 -0.03447
8.44000 0.13194
8.44200 0.00245
8.44400 -0.00323
8.44600 -0.07193
8.44800 0.01091
8.45000 0.00039
8.45200 -0.00014
8.45400 0.12429
8.45600 -0.10081
8.45800 -0.00594
8.46000 0.03284
8.46200 0.03693
8.46400 0.08642
8.46600 -0.13602
8.46800 0.01140
8.47000 0.10849
8.47200 0.00193
8.47400 -0.10125
8.47600 -0.03848
8.47800 -0.06986
8.48000 -0.03248
8.48200 0.00213
8.48400 -0.03357
8.48600 0.01735
8.48800 0.07733
8.49000 -0.06932
8.49200 -0.03346
8.49400 0.01255
8.49600 0.02132
8.49800 0.06009
8.50000 -0.05596
8.50200 -0.03813
8.50400 0.13680
8.50600 0.05572
8.50800 0.01905
8.51000 0.08678
8.51200 0.01104
8.51400 0.02661
8.51600 0.05002
8.51800 -0.11838
8.52000 0.04713
8.52200 0.11856
8.52400 0.03933
8.52600 -0.00115
8.52800 0.00919
8.53000 0.08822
8.53200 0.16812
8.53400 0.02516
8.53600 0.02408
8.53800 0.00964
8.54000 -0.01718
8.54200 -0.06659
8.54400 0.02153
8.54600 0.01499
8.54800 0.03640
8.55000 0.03127
8.55200 -0.04021
8.55400 0.02223
8.55600 -0.04674
8.55800 0.18387
8.56000 0.03026
8.56200 -0.02993
8.56400 -0.02593
8.56600 0.02437
8.56800 -0.05574
8.57000 0.00391
8.57200 -0.03684
8.57400 0.04284
8.57600 -0.05725
8.57800 -0.01161
8.58000 0.06684
8.58200 -0.07294
8.58400 -0.07755
8.58600 -0.12287
8.58800 0.04294
8.59000 -0.02400
8.59200 0.07551
8.59400 -0.02745
8.59600 -0.03820
8.59800 0.04031
8.60000 0.02918
8.60200 0.01373
8.60400 -0.04838
8.60600 0.11298
8.60800 -0.02507
8.61000 -0.03616
8.61200 0.09916
8.61400 0.09496
8.61600 0.00469
8.61800 0.00763
8.62000 0.14385
8.62200 0.01971
8.62400 -0.05074
8.62600 0.04870
8.62800 0.10500
8.63000 -0.02296
8.63200 0.02415
8.63400 0.09396
8.63600 -0.02756
8.63800 -0.09903
8.64000 0.02229
8.64200 0.14782
8.64400 -0.07506
8.64600 0.05892
8.64800 -0.01760
8.65000 0.03485
8.65200 0.11539
8.65400 0.02168
8.65600 0.03940
8.65800 0.11127
8.66000 0.00411
8.66200 -0.06021
8.66400 0.00713
8.66600 -0.06100
8.66800 0.05471
8.67000 -0.08315
8.67200 -0.09181
8.67400 -0.00607
8.67600 0.03552
8.67800 0.04150
8.68000 -0.06070
8.68200 -0.04430
8.68400 0.02577
8.68600 -0.04303
8.68800 0.03970
8.69000 -0.05907
8.69200 0.08192
8.69400 -0.02714
8.69600 0.07475
8.69800 -0.08865
8.70000 0.06361
8.70200 0.05005
8.70400 -0.02660
8.70600 0.00627
8.70800 0.00257
8.71000 -0.08001
8.71200 0.09937
8.71400 -0.03028
8.71600 0.02716
8.71800 0.02284
8.72000 -0.03281
8.72200 -0.07488
8.72400 0.00182
8.72600 -0.00808
8.72800 -0.06094
8.73000 0.08553
8.73200 -0.00975
8.73400 0.00657
8.73600 -0.08258
8.73800 0.09535
8.74000 0.04853
8.74200 0.01549
8.74400 -0.00371
8.74600 0.07802
8.74800 0.12405
8.75000 -0.05293
8.75200 -0.02800
8.75400 -0.03354
8.75600 -0.10510
8.75800 0.01011
8.76000 -0.01806
8.76200 -0.00482
8.76400 0.02787
8.76600 0.00553
8.76800 -0.09682
8.77000 0.06050
8.77200 -0.01039
8.77400 0.07204
8.77600 0.00748
8.77800 0.06457
8.78000 -0.03517
8.78200 0.05463
8.78400 -0.00337
8.78600 -0.03742
8.78800 -0.07137
8.79000 -0.05281
8.79200 -0.05032
8.79400 -0.04009
8.79600 0.05565
8.79800 0.01569
8.80000 0.04838
8.80200 -0.01417
8.80400 0.00702
8.80600 -0.09049
8.80800 0.02676
8.81000 -0.03565
8.81200 0.09797
8.81400 0.03977
8.81600 -0.00384
8.81800 -0.08630
8.82000 0.07005
8.82200 -0.10713
8.82400 0.00064
8.82600 -0.05549
8.82800 0.05918
8.83000 -0.05913
8.83200 0.04170
8.83400 -0.03402
8.83600 0.00110
8.83800 0.00197
8.84000 0.12887
8.84200 -0.12603
8.84400 0.07868
8.84600 -0.07066
8.84800 0.00644
8.85000 0.04110
8.85200 -0.11794
8.85400 -0.03907
8.85600 -0.09464
8.85800 0.11115
8.86000 0.03527
8.86200 -0.07870
8.86400 0.01629
8.86600 0.05353
8.86800 -0.02584
8.87000 0.04484
8.87200 -0.03943
8.87400 -0.11757
8.87600 0.01610
8.87800 0.20197
8.88000 -0.04158
8.88200 -0.11690
8.88400 0.07648
8.88600 0.06135
8.88800 0.01201
8.89000 -0.00929
8.89200 0.11094
8.89400 0.04636
8.89600 -0.09625
8.89800 -0.00552
8.90000 -0.00998
8.90200 -0.07593
8.90400 0.13277
8.90600 0.06300
8.90800 -0.09779
8.91000 0.01819
8.91200 0.08662
8.91400 0.03405
8.91600 0.01611
8.91800 0.00913
8.92000 -0.09577
8.92200 -0.00723
8.92400 -0.01142
8.92600 0.05804
8.92800 -0.10626
8.93000 0.07592
8.93200 -0.03373
8.93400 0.01607
8.93600 -0.01713
8.93800 -0.00028
8.94000 -0.06024
8.94200 0.00749
8.94400 -0.07948
8.94600 -0.01762
8.94800 -0.04560
8.95000 -0.01189
8.95200 0.02227
8.95400 0.07245
8.95600 -0.00530
8.95800 0.02112
8.96000 0.02815
8.96200 0.00650
8.96400 0.01052
8.96600 0.12034
8.96800 0.01052
8.97000 0.09087
8.97200 0.07472
8.97400 -0.00645
8.97600 -0.06786
8.97800 0.01222
8.98000 -0.01762
8.98200 -0.14188
8.98400 0.09325
8.98600 -0.00820
8.98800 0.07863
8.99000 -0.02540
8.99200 0.03946
8.99400 -0.03615
8.99600 -0.03254
8.99800 0.05190
9.00000 0.00527
9.00200 0.10697
9.00400 0.01021
9.00600 -0.02857
9.00800 -0.04141
9.01000 -0.01998
9.01200 -0.02337
9.01400 0.08786
9.01600 -0.00605
9.01800 -0.02615
9.02000 0.11041
9.02200 0.00976
9.02400 0.06931
9.02600 0.09202
9.02800 -0.00265
9.03000 0.09793
9.03200 0.04606
9.03400 -0.05458
9.03600 -0.03847
9.03800 -0.01923
9.04000 -0.03185
9.04200 0.01071
9.04400 0.00105
9.04600 -0.07135
9.04800 0.09574
9.05000 0.00313
9.05200 0.12019
9.05400 -0.02829
9.05600 -0.07741
9.05800 0.01509
9.06000 0.07230
9.06200 0.01024
9.06400 -0.01470
9.06600 0.06457
9.06800 -0.07088
9.07000 -0.03336
9.07200 0.03040
9.07400 0.03023
9.07600 -0.11854
9.07800 -0.05248
9.08000 -0.06905
9.08200 0.02122
9.08400 0.05915
9.08600 -0.01416
9.08800 0.00192
9.09000 -0.04510
9.09200 -0.02016
9.09400 0.00467
9.09600 -0.00392
9.09800 0.06578
9.10000 -0.09194
9.10200 0.01307
9.10400 0.08828
9.10600 -0.02246
9.10800 0.00925
9.11000 0.05494
9.11200 0.04753
9.11400 0.03143
9.11600 -0.04886
9.11800 -0.05418
9.12000 0.01618
9.12200 -0.11519
9.12400 0.00087
9.12600 -0.01599
9.12800 -0.01245
9.13000 0.01952
9.13200 0.10073
9.13400 0.03685
9.13600 0.03470
9.13800 -0.02446
9.14000 -0.01475
9.14200 0.01645
9.14400 0.04706
9.14600 -0.01062
9.14800 0.02739
9.15000 -0.03684
9.15200 -0.11050
9.15400 -0.02515
9.15600 0.03967
9.15800 -0.06746
9.16000 -0.13133
9.16200 0.11275
9.16400 -0.03794
9.16600 -0.04741
9.16800 -0.00987
9.17000 0.00203
9.17200 -0.02310
9.17400 -0.01435
9.17600 0.02237
9.17800 -0.11389
9.18000 -0.05066
9.18200 0.03125
9.18400 -0.06935
9.18600 0.11800
9.18800 0.25975
9.19000 0.76146
9.19200 1.34472
9.19400 1.49212
9.19600 1.06278
9.19800 0.46705
9.20000 0.13131
9.20200 0.03771
9.20400 0.03038
9.20600 -0.08326
9.20800 0.01532
9.21000 -0.03372
9.21200 0.04316
9.21400 -0.06407
9.21600 0.11730
9.21800 0.01470
9.22000 0.02413
9.22200 0.10736
9.22400 -0.05988
9.22600 0.00811
9.22800 0.01971
9.23000 -0.03385
9.23200 0.08377
9.23400 -0.07086
9.23600 0.00558
9.23800 -0.04757
9.24000 0.02552
9.24200 -0.00277
9.24400 -0.01491
9.24600 -0.07460
9.24800 -0.04013
9.25000 0.07054
9.25200 0.01729
9.25400 0.06590
9.25600 0.06672
9.25800 -0.05137
9.26000 0.04466
9.26200 -0.09571
9.26400 -0.00453
9.26600 0.03772
9.26800 0.05980
9.27000 -0.00393
9.27200 -0.12534
9.27400 -0.03827
9.27600 -0.01489
9.27800 0.02340
9.28000 -0.02781
9.28200 -0.01692
9.28400 -0.03170
9.28600 -0.01395
9.28800 -0.10768
9.29000 0.06191
9.29200 -0.04670
9.29400 0.11142
9.29600 -0.11242
9.29800 0.00664
9.30000 -0.06262
9.30200 0.00764
9.30400 0.01745
9.30600 -0.08142
9.30800 -0.11811
9.31000 0.00600
9.31200 -0.03330
9.31400 -0.19110
9.31600 -0.06829
9.31800 -0.10452
9.32000 -0.02317
9.32200 -0.00388
9.32400 -0.00173
9.32600 0.01313
9.32800 0.04868
9.33000 -0.02354
9.33200 0.04444
9.33400 -0.03315
9.33600 -0.01371
9.33800 -0.09981
9.34000 0.00354
9.34200 0.04420
9.34400 -0.11514
9.34600 -0.01286
9.34800 -0.03326
9.35000 0.04302
9.35200 -0.00433
9.35400 0.06989
9.35600 0.10177
9.35800 0.04383
9.36000 -0.00410
9.36200 0.02788
9.36400 0.05568
9.36600 0.11850
9.36800 0.01481
9.37000 -0.03125
9.37200 -0.01759
9.37400 0.01505
9.37600 -0.00278
9.37800 -0.02104
9.38000 -0.03054
9.38200 -0.05427
9.38400 -0.05929
9.38600 -0.10674
9.38800 0.09138
9.39000 -0.05602
9.39200 0.02011
9.39400 -0.03783
9.39600 -0.02551
9.39800 -0.00016
9.40000 0.04298
9.40200 -0.02165
9.40400 0.00540
9.40600 -0.08413
9.40800 -0.05741
9.41000 -0.05643
9.41200 0.10206
9.41400 0.05866
9.41600 -0.01092
9.41800 -0.01280
9.42000 0.04821
9.42200 -0.03977
9.42400 -0.11080
9.42600 0.05040
9.42800 0.09422
9.43000 0.10446
9.43200 -0.00735
9.43400 -0.02432
9.43600 -0.02469
9.43800 -0.03218
9.44000 -0.07617
9.44200 0.12560
9.44400 0.00464
9.44600 -0.05717
9.44800 -0.12115
9.45000 0.03771
9.45200 -0.10355
9.45400 0.05818
9.45600 0.02156
9.45800 -0.03094
9.46000 0.02671
9.46200 0.03579
9.46400 0.12569
9.46600 0.12913
9.46800 0.00439
9.47000 0.11141
9.47200 0.01446
9.47400 0.12679
9.47600 0.00862
9.47800 0.07054
9.48000 0.03804
9.48200 0.03666
9.48400 -0.02666
9.48600 0.08220
9.48800 0.05539
9.49000 -0.00993
9.49200 0.05066
9.49400 0.03888
9.49600 0.10725
9.49800 -0.04081
9.50000 -0.03351
9.50200 0.00425
9.50400 0.00946
9.50600 -0.01539
9.50800 0.03814
9.51000 0.06162
9.51200 -0.00678
9.51400 -0.02958
9.51600 0.01805
9.51800 0.01576
9.52000 -0.09579
9.52200 -0.01413
9.52400 -0.00491
9.52600 0.08464
9.52800 -0.01377
9.53000 -0.10314
9.53200 -0.05698
9.53400 -0.01583
9.53600 0.03386
9.53800 0.05439
9.54000 0.00551
9.54200 -0.05505
9.54400 -0.02846
9.54600 -0.07158
9.54800 0.05994
9.55000 0.01934
9.55200 -0.00520
9.55400 0.10492
9.55600 -0.01682
9.55800 -0.02773
9.56000 -0.07999
9.56200 -0.03166
9.56400 0.00897
9.56600 -0.03926
9.56800 0.06467
9.57000 0.12748
9.57200 -0.04539
9.57400 0.05472
9.57600 -0.02334
9.57800 0.03568
9.58000 0.10475
9.58200 -0.00989
9.58400 0.13952
9.58600 0.03738
9.58800 -0.03725
9.59000 -0.01322
9.59200 -0.10583
9.59400 0.07626
9.59600 -0.10573
9.59800 0.04837
9.60000 -0.02608
9.60200 0.08544
9.60400 -0.02374
9.60600 -0.11930
9.60800 -0.01577
9.61000 -0.04717
9.61200 0.04851
9.61400 0.05515
9.61600 -0.08009
9.61800 0.11501
9.62000 0.00783
9.62200 0.05253
9.62400 0.04586
9.62600 -0.04487
9.62800 0.00176
9.63000 0.12973
9.63200 0.02068
9.63400 0.08483
9.63600 -0.00835
9.63800 0.01160
9.64000 0.04515
9.64200 0.02727
9.64400 0.03910
9.64600 0.09615
9.64800 -0.08122
9.65000 -0.09826
9.65200 0.00965
9.65400 0.04092
9.65600 0.00215
9.65800 0.00222
9.66000 0.00064
9.66200 0.09106
9.66400 0.01167
9.66600 0.00300
9.66800 0.03892
9.67000 -0.02981
9.67200 -0.01317
9.67400 -0.02885
9.67600 0.03720
9.67800 -0.04733
9.68000 -0.07970
9.68200 -0.02968
9.68400 -0.09464
9.68600 -0.06219
9.68800 -0.02096
9.69000 0.01100
9.69200 -0.13584
9.69400 -0.03857
9.69600 -0.06261
9.69800 0.11066
9.70000 0.04559
9.70200 -0.00074
9.70400 0.02257
9.70600 -0.10923
9.70800 -0.03865
9.71000 -0.03092
9.71200 -0.10437
9.71400 0.13132
9.71600 0.04994
9.71800 0.02673
9.72000 -0.04014
9.72200 0.02712
9.72400 0.04469
9.72600 -0.00063
9.72800 0.00288
9.73000 0.10836
9.73200 -0.00215
9.73400 0.03658
9.73600 0.06613
9.73800 -0.09638
9.74000 -0.07879
9.74200 -0.13592
9.74400 0.01274
9.74600 0.01573
9.74800 -0.03874
9.75000 0.01995
9.75200 0.08792
9.75400 -0.11080
9.75600 -0.10114
9.75800 -0.03455
9.76000 0.05129
9.76200 0.00195
9.76400 0.04427
9.76600 -0.08395
9.76800 -0.01398
9.77000 -0.02270
9.77200 -0.01950
9.77400 -0.06596
9.77600 -0.01754
9.77800 0.09921
9.78000 0.02882
9.78200 -0.00042
9.78400 -0.02586
9.78600 0.03657
9.78800 -0.10651
9.79000 -0.00113
9.79200 -0.02657
9.79400 0.08572
9.79600 0.04693
9.79800 0.08835
9.80000 -0.04400
9.80200 -0.03843
9.80400 -0.03740
9.80600 -0.10109
9.80800 0.01600
9.81000 -0.06006
9.81200 0.05055
9.81400 0.02561
9.81600 0.17030
9.81800 -0.04753
9.82000 0.00423
9.82200 -0.03985
9.82400 0.02746
9.82600 -0.09771
9.82800 -0.03978
9.83000 0.00651
9.83200 0.00177
9.83400 -0.07912
9.83600 -0.04957
9.83800 -0.01641
9.84000 -0.11388
9.84200 0.04528
9.84400 0.09244
9.84600 -0.02785
9.84800 -0.04994
9.85000 0.01698
9.85200 -0.01870
9.85400 0.04299
9.85600 -0.05672
9.85800 -0.01653
9.86000 -0.01683
9.86200 0.03847
9.86400 0.00640
9.86600 -0.08257
9.86800 -0.00753
9.87000 -0.03396
9.87200 0.06398
9.87400 0.10037
9.87600 0.01842
9.87800 0.00101
9.88000 -0.06518
9.88200 -0.10589
9.88400 0.04081
9.88600 -0.08428
9.88800 -0.06429
9.89000 -0.02476
9.89200 -0.01104
9.89400 0.04619
9.89600 -0.00041
9.89800 -0.05418
9.90000 0.02905
9.90200 -0.19434
9.90400 -0.01375
9.90600 -0.12223
9.90800 -0.02521
9.91000 0.01981
9.91200 0.05754
9.91400 0.01890
9.91600 0.11389
9.91800 -0.08481
9.92000 -0.03101
9.92200 -0.04991
9.92400 0.01279
9.92600 0.08990
9.92800 -0.04248
9.93000 -0.01707
9.93200 0.19019
9.93400 -0.00116
9.93600 -0.05650
9.93800 0.06695
9.94000 0.03310
9.94200 0.03146
9.94400 -0.00559
9.94600 -0.03718
9.94800 0.03169
9.95000 -0.03998
9.95200 -0.16140
9.95400 0.02236
9.95600 0.04248
9.95800 -0.03925
9.96000 0.14045
9.96200 0.16305
9.96400 0.13552
9.96600 -0.03977
9.96800 0.02021
9.97000 -0.05882
9.97200 -0.06061
9.97400 0.00020
9.97600 -0.04400
9.97800 -0.00582
9.98000 0.05940
9.98200 0.02067
9.98400 -0.03633
9.98600 0.04980
9.98800 -0.08605
9.99000 0.03604
9.99200 0.01173
9.99400 -0.04163
9.99600 -0.03943
9.99800 -0.19533
