cas[s]  ekg[mV]
0.00000 0.17225
0.00200 0.14737
0.00400 0.06065
0.00600 0.10356
0.00800 0.04347
0.01000 0.03276
0.01200 -0.05672
0.01400 0.01812
0.01600 -0.08416
0.01800 -0.03766
0.02000 -0.08012
0.02200 -0.08262
0.02400 -0.01656
0.02600 0.00333
0.02800 0.02407
0.03000 0.00055
0.03200 0.05396
0.03400 0.00322
0.03600 0.02547
0.03800 -0.02541
0.04000 0.04436
0.04200 -0.06645
0.04400 -0.00961
0.04600 -0.12471
0.04800 0.04431
0.05000 -0.06245
0.05200 0.00593
0.05400 0.04227
0.05600 0.05870
0.05800 0.01734
0.06000 0.03355
0.06200 -0.02646
0.06400 -0.10698
0.06600 0.04267
0.06800 -0.01991
0.07000 0.04746
0.07200 -0.00646
0.07400 0.00404
0.07600 0.00779
0.07800 -0.02270
0.08000 -0.03417
0.08200 0.11425
0.08400 -0.04489
0.08600 -0.01156
0.08800 0.02537
0.09000 0.03434
0.09200 0.01536
0.09400 -0.06878
0.09600 -0.04934
0.09800 0.00064
0.10000 0.02723
0.10200 -0.00018
0.10400 -0.01549
0.10600 -0.01348
0.10800 0.03882
0.11000 -0.07056
0.11200 -0.05717
0.11400 -0.04096
0.11600 0.01364
0.11800 -0.04759
0.12000 -0.11386
0.12200 -0.04042
0.12400 0.05211
0.12600 -0.04165
0.12800 0.04262
0.13000 -0.02520
0.13200 -0.02812
0.13400 -0.01234
0.13600 0.02796
0.13800 -0.03019
0.14000 -0.03258
0.14200 -0.03807
0.14400 -0.06187
0.14600 0.04597
0.14800 -0.09182
0.15000 -0.04314
0.15200 -0.06411
0.15400 -0.15251
0.15600 0.02492
0.15800 0.04321
0.16000 -0.00976
0.16200 0.03066
0.16400 0.01778
0.16600 -0.06141
0.16800 0.05125
0.17000 0.09559
0.17200 0.09621
0.17400 -0.00450
0.17600 -0.04804
0.17800 -0.05731
0.18000 -0.15597
0.18200 0.05592
0.18400 -0.10105
0.18600 -0.10426
0.18800 0.07790
0.19000 0.00113
0.19200 -0.03840
0.19400 -0.03369
0.19600 0.00978
0.19800 0.00994
0.20000 -0.05648
0.20200 -0.01601
0.20400 -0.06085
0.20600 -0.07054
0.20800 0.03892
0.21000 0.00697
0.21200 0.11192
0.21400 -0.00763
0.21600 -0.06297
0.21800 0.01924
0.22000 -0.02358
0.22200 -0.00474
0.22400 -0.03479
0.22600 0.06939
0.22800 0.07639
0.23000 -0.01997
0.23200 -0.11440
0.23400 0.04728
0.23600 0.12462
0.23800 -0.03003
0.24000 0.10123
0.24200 -0.03606
0.24400 -0.03576
0.24600 0.05973
0.24800 0.13855
0.25000 -0.07322
0.25200 -0.02622
0.25400 0.02623
0.25600 0.04671
0.25800 0.04110
0.26000 0.08927
0.26200 0.09666
0.26400 0.06295
0.26600 0.07442
0.26800 -0.01340
0.27000 0.01191
0.27200 -0.03144
0.27400 -0.05699
0.27600 -0.08102
0.27800 -0.03796
0.28000 0.05195
0.28200 0.06925
0.28400 0.03289
0.28600 0.02732
0.28800 0.02169
0.29000 -0.05954
0.29200 0.00547
0.29400 0.08609
0.29600 -0.02770
0.29800 0.03921
0.30000 -0.12057
0.30200 -0.01424
0.30400 -0.07248
0.30600 -0.00604
0.30800 -0.07222
0.31000 0.04840
0.31200 0.07923
0.31400 0.00936
0.31600 -0.04814
0.31800 0.02542
0.32000 -0.04394
0.32200 0.06809
0.32400 -0.04500
0.32600 0.04742
0.32800 0.02580
0.33000 -0.02476
0.33200 0.05365
0.33400 0.06743
0.33600 0.05180
0.33800 -0.00713
0.34000 -0.05047
0.34200 -0.03266
0.34400 -0.00056
0.34600 -0.03898
0.34800 0.05099
0.35000 -0.00239
0.35200 0.06685
0.35400 0.05348
0.35600 0.03173
0.35800 -0.03924
0.36000 -0.01660
0.36200 0.01257
0.36400 -0.10995
0.36600 -0.08163
0.36800 -0.00561
0.37000 -0.01132
0.37200 0.04508
0.37400 0.05518
0.37600 -0.02646
0.37800 0.07249
0.38000 0.19063
0.38200 -0.00523
0.38400 -0.02743
0.38600 -0.10389
0.38800 0.07312
0.39000 0.04702
0.39200 -0.09402
0.39400 -0.07443
0.39600 0.02747
0.39800 0.14038
0.40000 -0.08103
0.40200 -0.03612
0.40400 -0.11731
0.40600 -0.01682
0.40800 0.07530
0.41000 -0.01192
0.41200 -0.00835
0.41400 -0.06799
0.41600 -0.02019
0.41800 0.01432
0.42000 0.01297
0.42200 -0.03831
0.42400 -0.11766
0.42600 -0.03653
0.42800 -0.09024
0.43000 0.01925
0.43200 -0.03243
0.43400 -0.03872
0.43600 0.04304
0.43800 0.08011
0.44000 -0.13768
0.44200 0.03080
0.44400 -0.11117
0.44600 0.02818
0.44800 0.06481
0.45000 0.02371
0.45200 -0.07922
0.45400 -0.08481
0.45600 -0.07822
0.45800 -0.03769
0.46000 -0.00961
0.46200 -0.02452
0.46400 -0.04625
0.46600 -0.09160
0.46800 0.04665
0.47000 0.27765
0.47200 0.64904
0.47400 1.21216
0.47600 1.52929
0.47800 1.26312
0.48000 0.70757
0.48200 0.20911
0.48400 0.19980
0.48600 -0.14520
0.48800 -0.01528
0.49000 -0.01595
0.49200 0.09041
0.49400 0.01381
0.49600 0.01880
0.49800 -0.01459
0.50000 0.00012
0.50200 0.03633
0.50400 0.05017
0.50600 0.01024
0.50800 -0.12663
0.51000 0.07083
0.51200 0.01620
0.51400 -0.06142
0.51600 -0.02473
0.51800 0.08576
0.52000 -0.02300
0.52200 0.08243
0.52400 -0.06645
0.52600 0.04052
0.52800 -0.07500
0.53000 -0.00707
0.53200 0.00393
0.53400 -0.06845
0.53600 -0.14098
0.53800 0.02690
0.54000 -0.06265
0.54200 -0.01851
0.54400 -0.09522
0.54600 0.03415
0.54800 -0.02816
0.55000 -0.00472
0.55200 -0.12937
0.55400 -0.04647
0.55600 -0.04001
0.55800 -0.08190
0.56000 0.01136
0.56200 0.04087
0.56400 0.04188
0.56600 0.02396
0.56800 0.08041
0.57000 0.06216
0.57200 -0.03096
0.57400 -0.05414
0.57600 0.03768
0.57800 -0.03025
0.58000 -0.08436
0.58200 -0.08857
0.58400 0.03861
0.58600 -0.02361
0.58800 0.04212
0.59000 -0.09270
0.59200 -0.06238
0.59400 0.10187
0.59600 0.04337
0.59800 0.01972
0.60000 -0.03159
0.60200 -0.00765
0.60400 -0.04545
0.60600 -0.00009
0.60800 -0.06340
0.61000 0.07641
0.61200 0.00135
0.61400 0.13214
0.61600 0.09578
0.61800 -0.05092
0.62000 -0.07279
0.62200 0.04669
0.62400 -0.02085
0.62600 -0.10904
0.62800 -0.03427
0.63000 0.06990
0.63200 0.03302
0.63400 0.02327
0.63600 0.04270
0.63800 0.08735
0.64000 0.07457
0.64200 0.10379
0.64400 0.01414
0.64600 -0.05213
0.64800 -0.03518
0.65000 -0.07210
0.65200 -0.00636
0.65400 0.00963
0.65600 -0.02443
0.65800 -0.07240
0.66000 0.00784
0.66200 -0.01510
0.66400 -0.01581
0.66600 -0.10561
0.66800 0.02454
0.67000 -0.02893
0.67200 0.00100
0.67400 0.02114
0.67600 -0.07567
0.67800 0.03205
0.68000 0.02377
0.68200 0.14002
0.68400 -0.02971
0.68600 0.05778
0.68800 -0.01234
0.69000 -0.03463
0.69200 0.15762
0.69400 -0.09635
0.69600 0.12007
0.69800 0.10811
0.70000 -0.03043
0.70200 -0.03084
0.70400 0.03406
0.70600 -0.02231
0.70800 0.04603
0.71000 -0.03946
0.71200 -0.03992
0.71400 -0.07761
0.71600 -0.05033
0.71800 0.04414
0.72000 -0.08501
0.72200 -0.04985
0.72400 -0.01120
0.72600 0.03029
0.72800 0.04425
0.73000 -0.03272
0.73200 0.05677
0.73400 -0.03810
0.73600 0.11886
0.73800 0.00759
0.74000 -0.08654
0.74200 -0.01048
0.74400 -0.04033
0.74600 -0.04544
0.74800 -0.03046
0.75000 -0.07103
0.75200 -0.04214
0.75400 0.02460
0.75600 -0.03637
0.75800 -0.14766
0.76000 0.11859
0.76200 0.01291
0.76400 0.00436
0.76600 0.04698
0.76800 0.00048
0.77000 0.03794
0.77200 0.00979
0.77400 0.05012
0.77600 0.02872
0.77800 -0.02426
0.78000 0.01300
0.78200 0.03167
0.78400 -0.00654
0.78600 0.02781
0.78800 0.02764
0.79000 0.09755
0.79200 -0.08432
0.79400 0.03505
0.79600 0.08297
0.79800 -0.00159
0.80000 0.08734
0.80200 -0.01237
0.80400 -0.03367
0.80600 0.01098
0.80800 -0.02176
0.81000 -0.05186
0.81200 -0.00027
0.81400 -0.07461
0.81600 -0.01270
0.81800 -0.03712
0.82000 -0.09754
0.82200 0.07355
0.82400 -0.06429
0.82600 0.01042
0.82800 0.03656
0.83000 -0.00224
0.83200 -0.11142
0.83400 -0.08675
0.83600 0.04558
0.83800 -0.07074
0.84000 -0.01899
0.84200 -0.00057
0.84400 0.02496
0.84600 0.07225
0.84800 -0.14448
0.85000 0.04905
0.85200 0.05359
0.85400 0.02288
0.85600 0.04080
0.85800 -0.10124
0.86000 0.03899
0.86200 -0.13835
0.86400 -0.05003
0.86600 -0.01815
0.86800 -0.02248
0.87000 -0.02844
0.87200 0.03251
0.87400 -0.00925
0.87600 -0.11282
0.87800 0.02440
0.88000 -0.04896
0.88200 0.00804
0.88400 0.09791
0.88600 -0.00394
0.88800 -0.02295
0.89000 -0.05902
0.89200 -0.03344
0.89400 0.03289
0.89600 -0.06012
0.89800 0.11270
0.90000 0.07126
0.90200 -0.00601
0.90400 -0.01953
0.90600 0.02243
0.90800 0.01547
0.91000 0.01443
0.91200 -0.07514
0.91400 0.06067
0.91600 -0.03257
0.91800 0.04561
0.92000 0.04646
0.92200 -0.01658
0.92400 0.04050
0.92600 0.06940
0.92800 0.05257
0.93000 0.00852
0.93200 0.00686
0.93400 0.03909
0.93600 0.00459
0.93800 0.01895
0.94000 0.00559
0.94200 -0.01808
0.94400 0.07647
0.94600 0.07695
0.94800 0.06196
0.95000 0.02600
0.95200 0.04295
0.95400 -0.05269
0.95600 -0.09841
0.95800 0.00691
0.96000 0.01974
0.96200 0.05516
0.96400 0.02441
0.96600 0.02368
0.96800 0.04801
0.97000 0.02479
0.97200 -0.06225
0.97400 0.13170
0.97600 0.01530
0.97800 0.03623
0.98000 -0.05766
0.98200 0.03290
0.98400 0.06217
0.98600 -0.01121
0.98800 0.06123
0.99000 0.10046
0.99200 0.04802
0.99400 0.00882
0.99600 -0.00991
0.99800 0.05220
1.00000 0.02844
1.00200 0.05974
1.00400 0.04017
1.00600 -0.10230
1.00800 -0.02174
1.01000 0.07725
1.01200 -0.03009
1.01400 0.00373
1.01600 0.11028
1.01800 0.02748
1.02000 0.05282
1.02200 0.03750
1.02400 -0.04953
1.02600 0.06429
1.02800 0.02322
1.03000 0.00600
1.03200 0.07335
1.03400 -0.00705
1.03600 -0.16269
1.03800 0.14525
1.04000 -0.04182
1.04200 0.07429
1.04400 -0.04352
1.04600 0.04406
1.04800 0.04880
1.05000 -0.01504
1.05200 -0.12593
1.05400 0.05354
1.05600 -0.05430
1.05800 0.11437
1.06000 0.04344
1.06200 0.04455
1.06400 0.03192
1.06600 -0.01659
1.06800 0.01426
1.07000 -0.00532
1.07200 -0.06727
1.07400 0.05106
1.07600 -0.01499
1.07800 0.07405
1.08000 -0.03017
1.08200 0.05438
1.08400 -0.02046
1.08600 -0.11520
1.08800 0.02705
1.09000 0.03204
1.09200 0.01818
1.09400 0.11363
1.09600 -0.04315
1.09800 0.06971
1.10000 -0.01548
1.10200 -0.06017
1.10400 -0.00017
1.10600 -0.08497
1.10800 0.01129
1.11000 0.03757
1.11200 -0.13606
1.11400 0.16660
1.11600 0.03397
1.11800 0.04841
1.12000 -0.06004
1.12200 -0.03668
1.12400 0.04853
1.12600 -0.00109
1.12800 0.04777
1.13000 0.03135
1.13200 0.06810
1.13400 -0.07563
1.13600 0.09996
1.13800 0.01282
1.14000 -0.00521
1.14200 -0.02154
1.14400 -0.01456
1.14600 -0.00386
1.14800 -0.04829
1.15000 -0.01087
1.15200 -0.00803
1.15400 0.04407
1.15600 -0.03220
1.15800 0.04632
1.16000 -0.00723
1.16200 0.03990
1.16400 0.01115
1.16600 -0.01843
1.16800 -0.00246
1.17000 0.02171
1.17200 -0.07702
1.17400 -0.00223
1.17600 -0.07013
1.17800 0.02280
1.18000 0.03392
1.18200 0.08213
1.18400 -0.01036
1.18600 -0.03963
1.18800 0.02398
1.19000 0.07793
1.19200 -0.01856
1.19400 0.04382
1.19600 -0.08755
1.19800 -0.02226
1.20000 0.08402
1.20200 -0.05862
1.20400 -0.00634
1.20600 0.08581
1.20800 0.03129
1.21000 0.01027
1.21200 0.12682
1.21400 -0.03155
1.21600 0.03698
1.21800 -0.10287
1.22000 0.04325
1.22200 -0.06832
1.22400 -0.08072
1.22600 0.04830
1.22800 0.02389
1.23000 0.05764
1.23200 -0.05322
1.23400 -0.01766
1.23600 -0.01457
1.23800 0.07213
1.24000 -0.00678
1.24200 0.02568
1.24400 0.00764
1.24600 -0.11873
1.24800 -0.02632
1.25000 -0.07993
1.25200 0.04099
1.25400 -0.02594
1.25600 -0.08299
1.25800 -0.00092
1.26000 0.08002
1.26200 -0.02520
1.26400 -0.05761
1.26600 -0.07376
1.26800 -0.02061
1.27000 0.08736
1.27200 -0.01986
1.27400 0.00588
1.27600 0.03617
1.27800 0.03372
1.28000 -0.07496
1.28200 0.03091
1.28400 0.01452
1.28600 0.00339
1.28800 -0.00607
1.29000 0.02772
1.29200 -0.08648
1.29400 -0.00209
1.29600 -0.09654
1.29800 -0.01312
1.30000 -0.05089
1.30200 0.12645
1.30400 0.01333
1.30600 0.10157
1.30800 -0.08875
1.31000 0.02052
1.31200 -0.03980
1.31400 0.07000
1.31600 0.05108
1.31800 -0.03018
1.32000 -0.07057
1.32200 0.13506
1.32400 -0.06498
1.32600 0.00363
1.32800 -0.02012
1.33000 -0.05528
1.33200 0.01430
1.33400 0.02596
1.33600 0.08694
1.33800 0.04896
1.34000 0.04472
1.34200 0.02403
1.34400 -0.01529
1.34600 -0.01237
1.34800 -0.01761
1.35000 -0.11140
1.35200 0.01314
1.35400 -0.06538
1.35600 0.13852
1.35800 0.08812
1.36000 0.01925
1.36200 -0.01350
1.36400 -0.05440
1.36600 0.05713
1.36800 0.06661
1.37000 -0.04537
1.37200 0.02480
1.37400 -0.00304
1.37600 0.04572
1.37800 0.08112
1.38000 -0.00568
1.38200 -0.02241
1.38400 0.02262
1.38600 -0.09554
1.38800 -0.07133
1.39000 -0.05062
1.39200 0.08927
1.39400 0.07903
1.39600 -0.07838
1.39800 -0.07749
1.40000 -0.09087
1.40200 -0.00671
1.40400 0.09182
1.40600 0.04794
1.40800 0.14117
1.41000 0.06353
1.41200 0.06341
1.41400 -0.06580
1.41600 0.01115
1.41800 -0.02738
1.42000 0.03252
1.42200 0.12746
1.42400 0.53346
1.42600 1.08035
1.42800 1.51242
1.43000 1.32913
1.43200 0.96330
1.43400 0.25472
1.43600 0.01325
1.43800 0.01135
1.44000 -0.02036
1.44200 0.04106
1.44400 0.10792
1.44600 -0.08037
1.44800 0.05146
1.45000 -0.02255
1.45200 -0.00276
1.45400 0.03830
1.45600 0.00726
1.45800 -0.07044
1.46000 0.03373
1.46200 -0.03740
1.46400 -0.08500
1.46600 -0.03890
1.46800 -0.01992
1.47000 0.00085
1.47200 0.11005
1.47400 0.02426
1.47600 -0.05374
1.47800 0.06553
1.48000 0.02274
1.48200 0.02226
1.48400 -0.09011
1.48600 -0.07844
1.48800 0.03790
1.49000 -0.12224
1.49200 0.04226
1.49400 0.10027
1.49600 0.02294
1.49800 0.10688
1.50000 0.06672
1.50200 0.00540
1.50400 0.01282
1.50600 -0.04279
1.50800 -0.07909
1.51000 0.02116
1.51200 0.10372
1.51400 0.01321
1.51600 -0.02374
1.51800 -0.06346
1.52000 -0.08949
1.52200 0.00119
1.52400 -0.15729
1.52600 0.12122
1.52800 -0.02412
1.53000 0.03153
1.53200 0.12359
1.53400 -0.01711
1.53600 0.05889
1.53800 0.05006
1.54000 0.01036
1.54200 -0.06026
1.54400 0.04022
1.54600 -0.03729
1.54800 -0.06446
1.55000 0.00184
1.55200 -0.01657
1.55400 -0.00388
1.55600 0.05943
1.55800 0.08745
1.56000 0.03331
1.56200 0.05719
1.56400 0.03142
1.56600 -0.07493
1.56800 -0.00442
1.57000 0.03408
1.57200 -0.00878
1.57400 0.02133
1.57600 0.01385
1.57800 0.01293
1.58000 -0.01505
1.58200 0.04465
1.58400 -0.08864
1.58600 -0.01116
1.58800 0.02846
1.59000 0.03050
1.59200 -0.05574
1.59400 0.03632
1.59600 -0.00452
1.59800 -0.05945
1.60000 -0.07970
1.60200 -0.00973
1.60400 -0.10323
1.60600 -0.05637
1.60800 0.08794
1.61000 -0.01624
1.61200 0.03316
1.61400 -0.03098
1.61600 0.09384
1.61800 -0.01574
1.62000 -0.00923
1.62200 0.04990
1.62400 0.02495
1.62600 -0.07661
1.62800 0.00277
1.63000 0.00939
1.63200 0.01444
1.63400 0.05159
1.63600 0.01750
1.63800 0.03996
1.64000 0.01375
1.64200 0.05717
1.64400 0.08678
1.64600 -0.02555
1.64800 -0.14997
1.65000 0.02987
1.65200 0.02503
1.65400 0.01110
1.65600 -0.08954
1.65800 -0.03568
1.66000 0.03648
1.66200 0.00315
1.66400 -0.06041
1.66600 -0.01734
1.66800 -0.07831
1.67000 0.04038
1.67200 -0.01727
1.67400 -0.06701
1.67600 0.15849
1.67800 -0.05996
1.68000 -0.05023
1.68200 0.01576
1.68400 -0.01394
1.68600 -0.01080
1.68800 0.01433
1.69000 0.03439
1.69200 0.04107
1.69400 -0.06170
1.69600 -0.08229
1.69800 -0.02508
1.70000 0.04387
1.70200 -0.04121
1.70400 -0.00773
1.70600 -0.05644
1.70800 -0.00543
1.71000 -0.00285
1.71200 -0.05285
1.71400 0.00136
1.71600 -0.08063
1.71800 -0.05849
1.72000 0.03329
1.72200 0.01509
1.72400 -0.04966
1.72600 -0.07423
1.72800 -0.04042
1.73000 -0.00267
1.73200 0.03563
1.73400 -0.02527
1.73600 -0.03932
1.73800 0.04772
1.74000 0.12488
1.74200 -0.00227
1.74400 -0.00644
1.74600 0.00240
1.74800 0.00185
1.75000 0.01674
1.75200 -0.06343
1.75400 -0.06670
1.75600 0.02202
1.75800 -0.02046
1.76000 -0.03089
1.76200 -0.03425
1.76400 -0.06669
1.76600 -0.03552
1.76800 -0.03700
1.77000 0.00189
1.77200 0.00705
1.77400 -0.00496
1.77600 0.02094
1.77800 -0.02979
1.78000 0.07512
1.78200 -0.06625
1.78400 0.02220
1.78600 0.02950
1.78800 -0.09768
1.79000 -0.01602
1.79200 -0.02858
1.79400 0.04849
1.79600 0.03175
1.79800 0.05740
1.80000 -0.04921
1.80200 -0.07254
1.80400 0.00692
1.80600 -0.00220
1.80800 -0.01846
1.81000 0.06036
1.81200 -0.01121
1.81400 0.09508
1.81600 0.05606
1.81800 0.01019
1.82000 0.11134
1.82200 -0.08022
1.82400 -0.06193
1.82600 0.03254
1.82800 -0.02511
1.83000 0.03668
1.83200 0.13955
1.83400 -0.01264
1.83600 0.02861
1.83800 -0.07896
1.84000 0.03385
1.84200 0.11857
1.84400 0.09920
1.84600 0.01746
1.84800 -0.12114
1.85000 -0.01213
1.85200 -0.06066
1.85400 -0.07923
1.85600 -0.03354
1.85800 -0.03699
1.86000 0.09515
1.86200 -0.00114
1.86400 -0.11072
1.86600 -0.03740
1.86800 -0.05797
1.87000 -0.00114
1.87200 -0.04542
1.87400 -0.10266
1.87600 0.00546
1.87800 0.01617
1.88000 -0.06901
1.88200 -0.09002
1.88400 0.06312
1.88600 -0.00221
1.88800 -0.03258
1.89000 -0.06187
1.89200 0.03880
1.89400 -0.01530
1.89600 0.00268
1.89800 0.09221
1.90000 -0.09463
1.90200 0.01432
1.90400 0.01911
1.90600 -0.09622
1.90800 -0.00002
1.91000 0.03852
1.91200 0.06321
1.91400 0.06731
1.91600 -0.03644
1.91800 0.03238
1.92000 -0.00571
1.92200 0.08285
1.92400 -0.05899
1.92600 0.01466
1.92800 0.00664
1.93000 0.09558
1.93200 0.04795
1.93400 0.02869
1.93600 0.06778
1.93800 -0.06377
1.94000 0.01234
1.94200 -0.03498
1.94400 -0.04265
1.94600 0.08638
1.94800 0.05754
1.95000 0.01309
1.95200 0.04120
1.95400 0.07038
1.95600 -0.02669
1.95800 -0.00242
1.96000 -0.05178
1.96200 0.02884
1.96400 -0.06361
1.96600 0.08392
1.96800 0.03292
1.97000 -0.01202
1.97200 -0.11081
1.97400 -0.01452
1.97600 -0.00601
1.97800 0.01919
1.98000 -0.06540
1.98200 0.00875
1.98400 -0.04147
1.98600 0.01786
1.98800 -0.02547
1.99000 -0.01984
1.99200 0.02989
1.99400 0.04702
1.99600 -0.00537
1.99800 -0.02115
2.00000 -0.07518
2.00200 -0.02052
2.00400 -0.05576
2.00600 0.11847
2.00800 -0.00081
2.01000 0.08336
2.01200 -0.01471
2.01400 0.05430
2.01600 -0.07611
2.01800 0.06675
2.02000 -0.00674
2.02200 0.07532
2.02400 -0.10785
2.02600 -0.00962
2.02800 -0.08043
2.03000 -0.03337
2.03200 0.00072
2.03400 -0.05868
2.03600 0.00525
2.03800 0.06105
2.04000 0.01337
2.04200 -0.07711
2.04400 0.02227
2.04600 -0.00380
2.04800 0.00651
2.05000 -0.00055
2.05200 0.03275
2.05400 0.04694
2.05600 -0.02637
2.05800 -0.04477
2.06000 -0.05706
2.06200 -0.03763
2.06400 0.08496
2.06600 0.00882
2.06800 -0.03674
2.07000 0.04106
2.07200 0.00948
2.07400 0.01589
2.07600 0.00055
2.07800 0.08131
2.08000 0.00302
2.08200 -0.03666
2.08400 -0.03149
2.08600 0.05759
2.08800 -0.00306
2.09000 -0.05855
2.09200 0.06217
2.09400 -0.05194
2.09600 -0.01918
2.09800 -0.12288
2.10000 -0.12071
2.10200 -0.04742
2.10400 -0.05432
2.10600 -0.01019
2.10800 -0.02922
2.11000 0.10397
2.11200 0.02871
2.11400 0.00674
2.11600 0.03232
2.11800 0.03552
2.12000 0.08739
2.12200 -0.07596
2.12400 0.10655
2.12600 -0.07588
2.12800 -0.04608
2.13000 -0.00679
2.13200 0.01977
2.13400 0.01221
2.13600 0.10028
2.13800 0.01310
2.14000 -0.01196
2.14200 0.03127
2.14400 -0.02109
2.14600 0.07458
2.14800 0.04141
2.15000 -0.03523
2.15200 -0.00467
2.15400 -0.04874
2.15600 -0.05528
2.15800 0.07037
2.16000 -0.02410
2.16200 0.01108
2.16400 0.01663
2.16600 0.02880
2.16800 -0.03986
2.17000 -0.00783
2.17200 0.13145
2.17400 0.06548
2.17600 -0.05595
2.17800 0.09866
2.18000 0.10102
2.18200 0.01246
2.18400 -0.02613
2.18600 0.07887
2.18800 0.13801
2.19000 -0.05073
2.19200 -0.02854
2.19400 0.00499
2.19600 -0.04689
2.19800 0.03728
2.20000 -0.09874
2.20200 0.10668
2.20400 0.02853
2.20600 -0.03769
2.20800 0.00085
2.21000 -0.10296
2.21200 0.07894
2.21400 -0.00088
2.21600 -0.10055
2.21800 -0.14288
2.22000 -0.10822
2.22200 0.06459
2.22400 -0.00904
2.22600 0.08497
2.22800 -0.09360
2.23000 -0.04002
2.23200 -0.01175
2.23400 -0.08801
2.23600 0.07139
2.23800 -0.06917
2.24000 0.07523
2.24200 -0.03136
2.24400 -0.09247
2.24600 0.11540
2.24800 -0.00485
2.25000 -0.03922
2.25200 -0.00484
2.25400 0.07479
2.25600 -0.05880
2.25800 -0.04805
2.26000 0.01764
2.26200 -0.08264
2.26400 0.02836
2.26600 0.01930
2.26800 0.03894
2.27000 -0.09219
2.27200 -0.04957
2.27400 -0.06669
2.27600 0.02888
2.27800 0.03425
2.28000 -0.02967
2.28200 0.02034
2.28400 0.07509
2.28600 0.12024
2.28800 -0.05507
2.29000 0.06923
2.29200 -0.11489
2.29400 0.05702
2.29600 0.08114
2.29800 0.01633
2.30000 0.01332
2.30200 0.05422
2.30400 0.02391
2.30600 0.06031
2.30800 -0.05748
2.31000 0.07401
2.31200 0.11411
2.31400 0.06510
2.31600 0.04472
2.31800 -0.06308
2.32000 0.00322
2.32200 0.00509
2.32400 -0.03057
2.32600 0.00315
2.32800 -0.09335
2.33000 -0.01952
2.33200 0.05665
2.33400 0.00651
2.33600 0.08195
2.33800 0.05973
2.34000 0.09408
2.34200 -0.06043
2.34400 0.03219
2.34600 -0.03992
2.34800 0.03506
2.35000 -0.11004
2.35200 0.11719
2.35400 0.03378
2.35600 0.06289
2.35800 0.02375
2.36000 -0.06563
2.36200 -0.04010
2.36400 -0.00946
2.36600 -0.00384
2.36800 -0.03912
2.37000 0.03070
2.37200 -0.00802
2.37400 0.10762
2.37600 0.38073
2.37800 0.86242
2.38000 1.48100
2.38200 1.39454
2.38400 0.90766
2.38600 0.32995
2.38800 0.19114
2.39000 0.00693
2.39200 0.01479
2.39400 0.02266
2.39600 -0.01037
2.39800 0.04560
2.40000 0.00064
2.40200 0.00228
2.40400 -0.02745
2.40600 0.03833
2.40800 -0.04494
2.41000 0.05690
2.41200 -0.05319
2.41400 0.01645
2.41600 -0.08343
2.41800 -0.01388
2.42000 -0.03225
2.42200 -0.02369
2.42400 0.06340
2.42600 -0.03843
2.42800 -0.11851
2.43000 0.04454
2.43200 0.01206
2.43400 0.03458
2.43600 0.00565
2.43800 -0.02075
2.44000 -0.07731
2.44200 -0.04144
2.44400 0.09637
2.44600 0.01134
2.44800 -0.09351
2.45000 0.03429
2.45200 0.09007
2.45400 -0.11514
2.45600 0.09982
2.45800 -0.05998
2.46000 -0.03460
2.46200 0.04558
2.46400 -0.09621
2.46600 -0.01225
2.46800 0.10700
2.47000 0.04145
2.47200 0.03628
2.47400 -0.11734
2.47600 0.06688
2.47800 -0.00933
2.48000 -0.00747
2.48200 0.04864
2.48400 0.03974
2.48600 0.01007
2.48800 -0.03953
2.49000 0.05912
2.49200 -0.09422
2.49400 0.07325
2.49600 -0.05028
2.49800 0.05705
2.50000 0.02183
2.50200 -0.06065
2.50400 0.00176
2.50600 -0.01166
2.50800 0.02521
2.51000 0.07142
2.51200 -0.02479
2.51400 -0.13883
2.51600 -0.04084
2.51800 -0.04987
2.52000 0.03908
2.52200 0.04078
2.52400 0.00547
2.52600 -0.04924
2.52800 -0.01381
2.53000 0.01399
2.53200 -0.06766
2.53400 -0.02839
2.53600 0.07134
2.53800 -0.04713
2.54000 0.01433
2.54200 0.06645
2.54400 -0.00401
2.54600 0.03231
2.54800 0.06041
2.55000 -0.03318
2.55200 0.03408
2.55400 0.03842
2.55600 -0.08881
2.55800 -0.00808
2.56000 0.07231
2.56200 -0.00912
2.56400 -0.12984
2.56600 0.09347
2.56800 0.07237
2.57000 -0.02674
2.57200 0.00671
2.57400 0.03008
2.57600 0.04058
2.57800 -0.06934
2.58000 0.14145
2.58200 -0.04172
2.58400 0.04545
2.58600 -0.06373
2.58800 0.13249
2.59000 -0.05435
2.59200 -0.01490
2.59400 0.03607
2.59600 -0.03987
2.59800 0.08396
2.60000 0.03345
2.60200 0.02763
2.60400 0.01279
2.60600 0.02506
2.60800 0.00888
2.61000 -0.05801
2.61200 -0.00787
2.61400 0.01935
2.61600 0.02685
2.61800 -0.08876
2.62000 0.05131
2.62200 0.06502
2.62400 -0.09881
2.62600 -0.13405
2.62800 0.12924
2.63000 -0.03261
2.63200 -0.02211
2.63400 0.01645
2.63600 -0.04746
2.63800 -0.01732
2.64000 -0.10933
2.64200 0.06524
2.64400 -0.09560
2.64600 -0.02958
2.64800 0.03584
2.65000 0.05913
2.65200 -0.13392
2.65400 -0.00959
2.65600 -0.10225
2.65800 0.07258
2.66000 -0.04069
2.66200 -0.01044
2.66400 -0.02763
2.66600 -0.00001
2.66800 -0.05064
2.67000 0.02286
2.67200 0.04772
2.67400 0.06997
2.67600 0.07818
2.67800 0.03596
2.68000 0.01909
2.68200 -0.05413
2.68400 -0.04841
2.68600 0.05651
2.68800 0.00649
2.69000 0.03414
2.69200 -0.10361
2.69400 -0.13954
2.69600 -0.07594
2.69800 -0.07219
2.70000 0.02174
2.70200 -0.05447
2.70400 -0.11572
2.70600 0.01938
2.70800 -0.07807
2.71000 0.02019
2.71200 -0.13852
2.71400 -0.07423
2.71600 -0.10276
2.71800 -0.14512
2.72000 -0.00943
2.72200 -0.03340
2.72400 -0.04668
2.72600 -0.14971
2.72800 -0.00731
2.73000 0.00186
2.73200 0.00978
2.73400 0.01618
2.73600 0.00928
2.73800 -0.05426
2.74000 0.10087
2.74200 -0.05683
2.74400 0.01150
2.74600 -0.02495
2.74800 0.03734
2.75000 -0.00104
2.75200 -0.05800
2.75400 -0.02277
2.75600 -0.02580
2.75800 0.11282
2.76000 -0.11658
2.76200 -0.11937
2.76400 -0.05515
2.76600 0.06269
2.76800 -0.03857
2.77000 -0.10187
2.77200 0.08232
2.77400 -0.10658
2.77600 -0.06313
2.77800 -0.02544
2.78000 0.00444
2.78200 -0.00298
2.78400 -0.00954
2.78600 0.02992
2.78800 -0.02612
2.79000 0.02904
2.79200 -0.00552
2.79400 0.01430
2.79600 0.01711
2.79800 0.12121
2.80000 -0.11334
2.80200 -0.03290
2.80400 0.00497
2.80600 0.04142
2.80800 0.06631
2.81000 -0.02562
2.81200 -0.00189
2.81400 0.05554
2.81600 0.05744
2.81800 0.05593
2.82000 0.06576
2.82200 -0.01964
2.82400 0.03226
2.82600 -0.05595
2.82800 -0.05388
2.83000 -0.05812
2.83200 0.02422
2.83400 0.03985
2.83600 0.04783
2.83800 0.01064
2.84000 -0.03829
2.84200 -0.09110
2.84400 0.00812
2.84600 -0.13292
2.84800 0.00555
2.85000 -0.07668
2.85200 -0.06093
2.85400 0.07388
2.85600 0.04165
2.85800 0.06567
2.86000 -0.08061
2.86200 -0.01428
2.86400 0.01608
2.86600 0.10329
2.86800 -0.05763
2.87000 -0.04050
2.87200 -0.04768
2.87400 -0.08057
2.87600 -0.11658
2.87800 0.05821
2.88000 0.02619
2.88200 -0.17813
2.88400 0.08511
2.88600 0.07757
2.88800 -0.05706
2.89000 0.08861
2.89200 -0.01719
2.89400 -0.04851
2.89600 -0.07868
2.89800 0.02653
2.90000 -0.05642
2.90200 -0.06916
2.90400 0.05878
2.90600 0.03449
2.90800 -0.03547
2.91000 0.01648
2.91200 -0.00483
2.91400 -0.06753
2.91600 -0.03093
2.91800 0.03156
2.92000 0.02308
2.92200 0.04502
2.92400 0.04694
2.92600 -0.04562
2.92800 -0.03802
2.93000 -0.04035
2.93200 -0.13222
2.93400 0.01173
2.93600 -0.02375
2.93800 0.10191
2.94000 0.00037
2.94200 -0.05789
2.94400 -0.01242
2.94600 -0.14656
2.94800 -0.01841
2.95000 0.01497
2.95200 0.01561
2.95400 -0.01879
2.95600 -0.02592
2.95800 -0.13581
2.96000 -0.01094
2.96200 -0.06285
2.96400 0.03128
2.96600 -0.08688
2.96800 0.02029
2.97000 -0.01250
2.97200 0.01425
2.97400 0.00953
2.97600 0.02370
2.97800 0.00693
2.98000 -0.01624
2.98200 0.01587
2.98400 -0.00678
2.98600 -0.06608
2.98800 0.06380
2.99000 0.11205
2.99200 0.07683
2.99400 0.04945
2.99600 0.06991
2.99800 0.11902
3.00000 -0.00927
3.00200 0.01210
3.00400 -0.01837
3.00600 0.03497
3.00800 0.01235
3.01000 -0.12535
3.01200 -0.10187
3.01400 0.07829
3.01600 0.07609
3.01800 0.00882
3.02000 0.01917
3.02200 0.00712
3.02400 0.01196
3.02600 -0.04016
3.02800 -0.02763
3.03000 -0.06158
3.03200 -0.09519
3.03400 -0.13405
3.03600 0.02195
3.03800 0.00245
3.04000 -0.09247
3.04200 -0.00495
3.04400 0.03103
3.04600 0.02711
3.04800 0.09577
3.05000 0.10444
3.05200 0.14175
3.05400 -0.07267
3.05600 -0.02166
3.05800 0.06013
3.06000 -0.01751
3.06200 -0.00316
3.06400 -0.02594
3.06600 -0.00798
3.06800 0.01599
3.07000 -0.08245
3.07200 -0.11537
3.07400 -0.06855
3.07600 -0.03844
3.07800 -0.04565
3.08000 -0.07725
3.08200 -0.00476
3.08400 -0.02030
3.08600 -0.04029
3.08800 0.04318
3.09000 0.06736
3.09200 0.00003
3.09400 0.06594
3.09600 0.02460
3.09800 -0.07998
3.10000 0.03688
3.10200 -0.03076
3.10400 0.09896
3.10600 0.10182
3.10800 -0.06908
3.11000 -0.06124
3.11200 -0.05143
3.11400 0.07426
3.11600 -0.00538
3.11800 -0.00546
3.12000 0.02440
3.12200 -0.03143
3.12400 -0.18650
3.12600 0.14194
3.12800 0.02579
3.13000 0.07153
3.13200 0.01841
3.13400 0.04391
3.13600 0.01841
3.13800 -0.07210
3.14000 0.03033
3.14200 0.05943
3.14400 0.03188
3.14600 0.04919
3.14800 0.12269
3.15000 0.05812
3.15200 0.02930
3.15400 0.01677
3.15600 -0.01965
3.15800 0.02637
3.16000 0.10260
3.16200 0.02815
3.16400 0.10143
3.16600 -0.10412
3.16800 -0.07425
3.17000 0.09876
3.17200 0.02846
3.17400 0.04001
3.17600 0.06204
3.17800 0.07759
3.18000 0.01331
3.18200 -0.06194
3.18400 -0.00401
3.18600 -0.06680
3.18800 0.01500
3.19000 0.08291
3.19200 0.03314
3.19400 0.09984
3.19600 -0.01447
3.19800 -0.13725
3.20000 -0.03012
3.20200 -0.11340
3.20400 -0.03420
3.20600 -0.04050
3.20800 0.00909
3.21000 -0.02738
3.21200 -0.08134
3.21400 -0.10583
3.21600 -0.01367
3.21800 0.05937
3.22000 0.01585
3.22200 0.05274
3.22400 -0.05237
3.22600 -0.12319
3.22800 0.04450
3.23000 0.06169
3.23200 -0.10671
3.23400 -0.00938
3.23600 0.00754
3.23800 0.06002
3.24000 -0.00655
3.24200 0.02199
3.24400 0.01293
3.24600 0.03443
3.24800 -0.17182
3.25000 -0.06991
3.25200 -0.04396
3.25400 0.01160
3.25600 -0.16285
3.25800 -0.06646
3.26000 -0.11004
3.26200 0.03321
3.26400 -0.04529
3.26600 -0.00285
3.26800 0.02446
3.27000 -0.11164
3.27200 0.02203
3.27400 -0.13106
3.27600 -0.00367
3.27800 0.04694
3.28000 -0.05215
3.28200 -0.04530
3.28400 0.03026
3.28600 -0.03370
3.28800 -0.03106
3.29000 0.05225
3.29200 0.11205
3.29400 0.07482
3.29600 0.11559
3.29800 -0.05269
3.30000 0.03398
3.30200 -0.10656
3.30400 0.03293
3.30600 -0.02517
3.30800 -0.12703
3.31000 -0.09004
3.31200 -0.05451
3.31400 0.03742
3.31600 0.04121
3.31800 -0.02909
3.32000 -0.00667
3.32200 0.01609
3.32400 -0.02857
3.32600 0.04295
3.32800 0.33960
3.33000 0.76218
3.33200 1.23824
3.33400 1.42689
3.33600 1.05594
3.33800 0.39927
3.34000 0.11506
3.34200 0.11950
3.34400 -0.05298
3.34600 -0.01659
3.34800 -0.02353
3.35000 -0.00418
3.35200 0.01651
3.35400 -0.06274
3.35600 0.00506
3.35800 -0.00248
3.36000 -0.00550
3.36200 0.01917
3.36400 0.00648
3.36600 -0.02713
3.36800 0.05393
3.37000 0.10527
3.37200 0.05713
3.37400 0.03471
3.37600 0.05232
3.37800 0.11633
3.38000 -0.00508
3.38200 -0.01028
3.38400 0.01691
3.38600 -0.01169
3.38800 -0.07956
3.39000 0.03151
3.39200 -0.04214
3.39400 -0.02460
3.39600 -0.05645
3.39800 -0.01178
3.40000 -0.02880
3.40200 -0.01736
3.40400 0.06268
3.40600 -0.02747
3.40800 0.05267
3.41000 0.05304
3.41200 -0.00400
3.41400 0.07307
3.41600 -0.03842
3.41800 -0.07020
3.42000 -0.07165
3.42200 0.01962
3.42400 -0.02200
3.42600 0.08818
3.42800 0.02715
3.43000 0.11169
3.43200 0.03968
3.43400 -0.08616
3.43600 0.01071
3.43800 0.01855
3.44000 -0.03770
3.44200 0.03131
3.44400 -0.00498
3.44600 -0.00384
3.44800 0.08301
3.45000 -0.09873
3.45200 0.02291
3.45400 0.11270
3.45600 -0.07530
3.45800 -0.02128
3.46000 0.07498
3.46200 -0.04945
3.46400 0.03407
3.46600 -0.02950
3.46800 0.02736
3.47000 0.03828
3.47200 -0.02116
3.47400 -0.02224
3.47600 -0.05980
3.47800 -0.08936
3.48000 -0.02206
3.48200 -0.04265
3.48400 -0.02243
3.48600 -0.05798
3.48800 0.09594
3.49000 0.03888
3.49200 -0.01499
3.49400 0.04488
3.49600 0.05238
3.49800 0.15200
3.50000 0.00901
3.50200 0.06354
3.50400 0.06770
3.50600 0.08177
3.50800 -0.05867
3.51000 0.03032
3.51200 -0.03108
3.51400 0.06521
3.51600 0.03271
3.51800 0.03119
3.52000 -0.05292
3.52200 -0.00034
3.52400 0.01270
3.52600 -0.00670
3.52800 0.14575
3.53000 0.02875
3.53200 0.12309
3.53400 0.00680
3.53600 -0.08203
3.53800 0.06145
3.54000 -0.03826
3.54200 0.01468
3.54400 -0.01338
3.54600 0.01472
3.54800 -0.02288
3.55000 -0.07341
3.55200 0.03069
3.55400 0.06930
3.55600 0.06941
3.55800 -0.00793
3.56000 -0.03569
3.56200 0.04098
3.56400 0.06731
3.56600 0.01789
3.56800 -0.19207
3.57000 0.01457
3.57200 0.10695
3.57400 -0.12892
3.57600 0.08666
3.57800 -0.02108
3.58000 -0.00467
3.58200 -0.02089
3.58400 -0.00568
3.58600 -0.13529
3.58800 0.03240
3.59000 0.02760
3.59200 0.00853
3.59400 0.06663
3.59600 0.12178
3.59800 0.03874
3.60000 0.07992
3.60200 0.01164
3.60400 0.04051
3.60600 -0.04129
3.60800 -0.02578
3.61000 -0.07276
3.61200 -0.01932
3.61400 0.00263
3.61600 -0.07216
3.61800 -0.00213
3.62000 0.09399
3.62200 -0.02137
3.62400 0.03914
3.62600 -0.02748
3.62800 0.00486
3.63000 -0.04572
3.63200 0.09203
3.63400 -0.07244
3.63600 0.03260
3.63800 -0.04270
3.64000 0.12671
3.64200 0.02378
3.64400 0.08533
3.64600 0.09282
3.64800 0.04491
3.65000 -0.03328
3.65200 0.04990
3.65400 0.09225
3.65600 -0.13218
3.65800 -0.05541
3.66000 0.01134
3.66200 0.00649
3.66400 -0.03374
3.66600 0.03507
3.66800 0.05132
3.67000 -0.12613
3.67200 0.00971
3.67400 -0.13687
3.67600 -0.05235
3.67800 -0.12604
3.68000 0.03463
3.68200 -0.01151
3.68400 -0.04378
3.68600 0.07098
3.68800 0.15257
3.69000 0.13672
3.69200 -0.05762
3.69400 -0.04089
3.69600 -0.04781
3.69800 -0.09838
3.70000 0.00272
3.70200 -0.10504
3.70400 0.02624
3.70600 0.05047
3.70800 0.04994
3.71000 -0.14286
3.71200 0.05899
3.71400 -0.11309
3.71600 -0.03818
3.71800 -0.11516
3.72000 0.18187
3.72200 -0.02399
3.72400 0.00477
3.72600 -0.00725
3.72800 -0.01056
3.73000 -0.01984
3.73200 -0.02114
3.73400 0.04236
3.73600 0.04800
3.73800 -0.09960
3.74000 -0.11751
3.74200 -0.00337
3.74400 0.05315
3.74600 0.01168
3.74800 0.05460
3.75000 0.06990
3.75200 0.14708
3.75400 0.07771
3.75600 0.05902
3.75800 -0.11044
3.76000 -0.08495
3.76200 -0.03928
3.76400 -0.03429
3.76600 -0.05686
3.76800 0.10535
3.77000 0.03066
3.77200 0.02458
3.77400 -0.01866
3.77600 0.09748
3.77800 0.15546
3.78000 -0.00488
3.78200 -0.03093
3.78400 0.00145
3.78600 0.11436
3.78800 -0.04223
3.79000 -0.09362
3.79200 -0.02318
3.79400 0.01789
3.79600 -0.02888
3.79800 0.09499
3.80000 -0.02745
3.80200 -0.06323
3.80400 0.02651
3.80600 -0.02907
3.80800 -0.04465
3.81000 0.04364
3.81200 0.00105
3.81400 0.02047
3.81600 0.02225
3.81800 0.00368
3.82000 0.02380
3.82200 -0.02462
3.82400 0.00242
3.82600 -0.10431
3.82800 -0.07885
3.83000 0.13003
3.83200 0.03240
3.83400 -0.02938
3.83600 -0.09266
3.83800 0.11276
3.84000 -0.01308
3.84200 -0.05467
3.84400 -0.00473
3.84600 -0.06636
3.84800 -0.04104
3.85000 0.02853
3.85200 0.02270
3.85400 0.10861
3.85600 0.14803
3.85800 0.07705
3.86000 0.00206
3.86200 -0.06884
3.86400 -0.01099
3.86600 -0.03539
3.86800 -0.06891
3.87000 -0.04221
3.87200 -0.06789
3.87400 0.00972
3.87600 -0.03415
3.87800 -0.00711
3.88000 0.00175
3.88200 0.03850
3.88400 0.07147
3.88600 0.00718
3.88800 -0.11426
3.89000 -0.02984
3.89200 -0.01961
3.89400 -0.00444
3.89600 0.00146
3.89800 0.04371
3.90000 -0.08928
3.90200 -0.04707
3.90400 0.15803
3.90600 0.05451
3.90800 -0.06750
3.91000 -0.00723
3.91200 -0.11598
3.91400 -0.06058
3.91600 -0.01846
3.91800 0.00562
3.92000 -0.03784
3.92200 0.01859
3.92400 -0.13697
3.92600 0.02983
3.92800 0.03269
3.93000 0.03242
3.93200 0.02495
3.93400 -0.00033
3.93600 0.01190
3.93800 0.03953
3.94000 0.04429
3.94200 -0.13889
3.94400 -0.03723
3.94600 0.01894
3.94800 0.12817
3.95000 0.02540
3.95200 -0.01154
3.95400 0.04842
3.95600 0.01710
3.95800 -0.04621
3.96000 0.12884
3.96200 -0.05267
3.96400 0.10474
3.96600 0.00499
3.96800 0.09153
3.97000 -0.06947
3.97200 -0.05935
3.97400 0.01478
3.97600 -0.01049
3.97800 0.06538
3.98000 -0.03486
3.98200 -0.02231
3.98400 -0.07222
3.98600 0.04342
3.98800 -0.02481
3.99000 -0.09276
3.99200 0.08156
3.99400 0.00169
3.99600 -0.00358
3.99800 -0.08244
4.00000 -0.09426
4.00200 -0.00471
4.00400 -0.01522
4.00600 -0.00286
4.00800 0.00514
4.01000 -0.01025
4.01200 -0.01099
4.01400 0.11792
4.01600 0.02570
4.01800 -0.00734
4.02000 0.09904
4.02200 0.03866
4.02400 0.00747
4.02600 -0.01609
4.02800 -0.03964
4.03000 -0.09667
4.03200 -0.00869
4.03400 -0.08036
4.03600 0.07791
4.03800 -0.04177
4.04000 -0.00754
4.04200 0.07378
4.04400 0.04839
4.04600 0.10344
4.04800 -0.02050
4.05000 0.08874
4.05200 -0.08232
4.05400 -0.00486
4.05600 0.05606
4.05800 -0.00883
4.06000 0.03893
4.06200 0.09950
4.06400 -0.05078
4.06600 -0.09180
4.06800 -0.00228
4.07000 0.06950
4.07200 -0.07916
4.07400 0.00910
4.07600 0.00384
4.07800 0.00706
4.08000 -0.03442
4.08200 0.08527
4.08400 -0.00340
4.08600 0.14237
4.08800 0.01636
4.09000 0.14354
4.09200 -0.00924
4.09400 -0.09752
4.09600 -0.04490
4.09800 0.05116
4.10000 -0.06123
4.10200 0.05827
4.10400 0.04334
4.10600 -0.02396
4.10800 -0.06739
4.11000 -0.06290
4.11200 -0.00575
4.11400 -0.00157
4.11600 -0.03315
4.11800 0.04058
4.12000 0.08056
4.12200 0.01531
4.12400 0.05373
4.12600 -0.06199
4.12800 -0.07694
4.13000 -0.02957
4.13200 -0.00477
4.13400 0.00072
4.13600 -0.02623
4.13800 -0.04623
4.14000 -0.00879
4.14200 -0.05762
4.14400 0.07403
4.14600 0.00825
4.14800 -0.06308
4.15000 0.07696
4.15200 0.04089
4.15400 0.01996
4.15600 -0.00858
4.15800 -0.04835
4.16000 -0.02319
4.16200 0.01982
4.16400 -0.02956
4.16600 -0.04384
4.16800 -0.01896
4.17000 0.06608
4.17200 -0.02374
4.17400 0.05296
4.17600 0.04515
4.17800 -0.08788
4.18000 -0.02823
4.18200 0.07226
4.18400 -0.07399
4.18600 -0.03981
4.18800 0.06293
4.19000 -0.07523
4.19200 0.03497
4.19400 -0.04628
4.19600 0.00984
4.19800 -0.05184
4.20000 0.02988
4.20200 -0.04792
4.20400 -0.05209
4.20600 0.01245
4.20800 0.07028
4.21000 -0.00980
4.21200 0.04720
4.21400 0.04348
4.21600 -0.03961
4.21800 -0.10170
4.22000 -0.04087
4.22200 0.02649
4.22400 -0.05731
4.22600 -0.02880
4.22800 -0.01529
4.23000 0.12730
4.23200 -0.00675
4.23400 -0.06786
4.23600 0.11597
4.23800 0.06183
4.24000 -0.08217
4.24200 -0.04241
4.24400 0.13481
4.24600 -0.02514
4.24800 0.02631
4.25000 -0.02882
4.25200 0.05043
4.25400 -0.08535
4.25600 -0.04144
4.25800 0.03715
4.26000 0.00605
4.26200 0.00987
4.26400 0.12401
4.26600 -0.00265
4.26800 -0.11359
4.27000 -0.03089
4.27200 -0.01200
4.27400 0.00173
4.27600 0.03359
4.27800 0.10304
4.28000 0.29853
4.28200 0.66800
4.28400 1.27065
4.28600 1.41358
4.28800 1.08609
4.29000 0.44426
4.29200 0.08526
4.29400 -0.13694
4.29600 0.07813
4.29800 -0.05857
4.30000 -0.10605
4.30200 0.04503
4.30400 -0.04255
4.30600 0.08633
4.30800 0.06892
4.31000 -0.06724
4.31200 -0.00084
4.31400 0.03340
4.31600 -0.03416
4.31800 -0.00111
4.32000 0.01884
4.32200 -0.03355
4.32400 0.04219
4.32600 -0.01037
4.32800 0.08340
4.33000 0.01853
4.33200 -0.01320
4.33400 0.08297
4.33600 -0.00721
4.33800 0.01494
4.34000 0.02860
4.34200 -0.01403
4.34400 -0.03757
4.34600 0.01539
4.34800 0.09328
4.35000 -0.15392
4.35200 0.01161
4.35400 0.02637
4.35600 0.07949
4.35800 0.10605
4.36000 -0.11794
4.36200 -0.03805
4.36400 -0.05048
4.36600 -0.03144
4.36800 0.09792
4.37000 -0.05407
4.37200 0.01898
4.37400 -0.01903
4.37600 0.05614
4.37800 0.00076
4.38000 -0.01295
4.38200 -0.06354
4.38400 -0.07896
4.38600 -0.04100
4.38800 -0.13025
4.39000 -0.01334
4.39200 -0.12054
4.39400 0.05550
4.39600 -0.01191
4.39800 -0.03673
4.40000 0.07180
4.40200 -0.04416
4.40400 0.10281
4.40600 -0.02538
4.40800 0.11427
4.41000 -0.01235
4.41200 0.02517
4.41400 -0.05151
4.41600 0.03407
4.41800 0.00185
4.42000 0.08549
4.42200 -0.00670
4.42400 -0.00613
4.42600 -0.05348
4.42800 0.08843
4.43000 -0.02796
4.43200 -0.14587
4.43400 0.04407
4.43600 -0.00175
4.43800 -0.06849
4.44000 -0.02792
4.44200 -0.02978
4.44400 -0.03502
4.44600 -0.11870
4.44800 -0.01526
4.45000 -0.09975
4.45200 0.02336
4.45400 -0.03823
4.45600 0.08181
4.45800 0.10567
4.46000 -0.12960
4.46200 0.00417
4.46400 0.07394
4.46600 0.03350
4.46800 -0.11452
4.47000 -0.07913
4.47200 0.04481
4.47400 0.01633
4.47600 -0.08358
4.47800 0.03661
4.48000 0.07381
4.48200 0.00047
4.48400 0.00802
4.48600 0.02051
4.48800 -0.07645
4.49000 -0.07101
4.49200 -0.00539
4.49400 0.09686
4.49600 -0.06877
4.49800 0.01808
4.50000 -0.02004
4.50200 0.00663
4.50400 -0.06051
4.50600 0.03485
4.50800 0.00077
4.51000 0.03323
4.51200 -0.04058
4.51400 0.02080
4.51600 -0.02529
4.51800 0.00483
4.52000 -0.10507
4.52200 0.01683
4.52400 -0.07615
4.52600 -0.02061
4.52800 0.01447
4.53000 0.04675
4.53200 -0.00846
4.53400 -0.07369
4.53600 -0.00565
4.53800 -0.05463
4.54000 0.08776
4.54200 0.04034
4.54400 0.09876
4.54600 0.05245
4.54800 -0.06683
4.55000 -0.00388
4.55200 0.01562
4.55400 -0.01246
4.55600 0.14084
4.55800 0.00272
4.56000 0.08214
4.56200 0.02780
4.56400 0.05389
4.56600 0.07069
4.56800 0.02245
4.57000 -0.05160
4.57200 0.00560
4.57400 -0.05623
4.57600 0.06723
4.57800 0.06823
4.58000 -0.05053
4.58200 0.00526
4.58400 0.06809
4.58600 0.02865
4.58800 0.01733
4.59000 -0.00358
4.59200 -0.08841
4.59400 -0.10616
4.59600 0.03678
4.59800 -0.05971
4.60000 0.05023
4.60200 -0.03020
4.60400 0.03014
4.60600 -0.04814
4.60800 -0.00903
4.61000 0.10527
4.61200 -0.03389
4.61400 0.06523
4.61600 -0.00212
4.61800 0.06430
4.62000 -0.07160
4.62200 -0.06370
4.62400 -0.01479
4.62600 -0.04446
4.62800 0.01080
4.63000 -0.03548
4.63200 0.03176
4.63400 0.01269
4.63600 0.02587
4.63800 -0.03022
4.64000 0.00707
4.64200 -0.01996
4.64400 0.12845
4.64600 -0.09721
4.64800 -0.01137
4.65000 -0.05324
4.65200 -0.03404
4.65400 -0.04403
4.65600 0.02011
4.65800 -0.03562
4.66000 -0.02662
4.66200 0.04678
4.66400 -0.11209
4.66600 0.00812
4.66800 0.05973
4.67000 0.00872
4.67200 0.10442
4.67400 0.00877
4.67600 0.02347
4.67800 -0.04650
4.68000 0.03221
4.68200 0.02050
4.68400 -0.04670
4.68600 0.01934
4.68800 -0.01469
4.69000 -0.10332
4.69200 -0.00723
4.69400 -0.08516
4.69600 -0.00960
4.69800 -0.00947
4.70000 0.07568
4.70200 0.05055
4.70400 -0.01332
4.70600 0.04115
4.70800 0.05931
4.71000 -0.07920
4.71200 0.07360
4.71400 0.00165
4.71600 0.00193
4.71800 0.13203
4.72000 -0.01976
4.72200 -0.02661
4.72400 0.10446
4.72600 0.00377
4.72800 -0.00417
4.73000 0.01216
4.73200 0.03214
4.73400 0.05561
4.73600 0.13530
4.73800 -0.03422
4.74000 0.02346
4.74200 -0.08274
4.74400 -0.00159
4.74600 -0.02590
4.74800 -0.02967
4.75000 0.07816
4.75200 0.11310
4.75400 0.02447
4.75600 0.08273
4.75800 0.07680
4.76000 -0.04466
4.76200 0.10947
4.76400 -0.03943
4.76600 -0.08896
4.76800 -0.03037
4.77000 0.11276
4.77200 0.01945
4.77400 0.07942
4.77600 -0.11056
4.77800 0.04081
4.78000 -0.03763
4.78200 -0.01054
4.78400 -0.01433
4.78600 -0.07753
4.78800 -0.00550
4.79000 0.03721
4.79200 -0.00383
4.79400 -0.04491
4.79600 0.07600
4.79800 0.02175
4.80000 -0.01096
4.80200 -0.01735
4.80400 -0.06102
4.80600 0.03072
4.80800 0.01498
4.81000 -0.00776
4.81200 0.03537
4.81400 0.15164
4.81600 -0.12911
4.81800 -0.08971
4.82000 0.06639
4.82200 -0.04240
4.82400 0.09268
4.82600 0.09172
4.82800 0.06165
4.83000 0.02477
4.83200 0.06873
4.83400 -0.10777
4.83600 0.01253
4.83800 0.10346
4.84000 -0.12252
4.84200 0.03143
4.84400 0.02613
4.84600 0.02876
4.84800 -0.05152
4.85000 -0.01519
4.85200 0.03768
4.85400 -0.03804
4.85600 -0.08312
4.85800 0.04706
4.86000 -0.00914
4.86200 -0.06415
4.86400 -0.04793
4.86600 0.05927
4.86800 -0.03080
4.87000 -0.00929
4.87200 -0.17663
4.87400 0.04347
4.87600 -0.04900
4.87800 0.05238
4.88000 -0.11078
4.88200 -0.03425
4.88400 -0.00416
4.88600 -0.01569
4.88800 0.01305
4.89000 0.05402
4.89200 -0.07814
4.89400 -0.11381
4.89600 -0.04959
4.89800 0.05699
4.90000 -0.03125
4.90200 -0.00735
4.90400 0.07458
4.90600 -0.00487
4.90800 -0.02912
4.91000 0.00127
4.91200 -0.03230
4.91400 0.07544
4.91600 0.07394
4.91800 -0.05832
4.92000 0.10044
4.92200 -0.04736
4.92400 0.00472
4.92600 -0.04858
4.92800 0.00633
4.93000 -0.07149
4.93200 -0.05393
4.93400 0.01158
4.93600 0.07732
4.93800 -0.10736
4.94000 -0.10204
4.94200 -0.09685
4.94400 -0.06697
4.94600 0.03120
4.94800 -0.06391
4.95000 -0.11455
4.95200 -0.05860
4.95400 0.01699
4.95600 0.01707
4.95800 -0.01742
4.96000 0.00148
4.96200 0.04405
4.96400 -0.10630
4.96600 0.02543
4.96800 -0.05722
4.97000 -0.06085
4.97200 0.08594
4.97400 0.04108
4.97600 0.04192
4.97800 0.02561
4.98000 0.05117
4.98200 -0.03843
4.98400 0.08194
4.98600 -0.07516
4.98800 -0.09994
4.99000 -0.02191
4.99200 -0.01988
4.99400 -0.00283
4.99600 0.02883
4.99800 0.03158
5.00000 0.03588
5.00200 -0.11723
5.00400 -0.05526
5.00600 -0.05872
5.00800 0.09935
5.01000 0.05173
5.01200 0.05435
5.01400 0.02600
5.01600 0.08827
5.01800 0.00552
5.02000 0.08290
5.02200 -0.11358
5.02400 0.07166
5.02600 0.06139
5.02800 0.04001
5.03000 0.04116
5.03200 0.02221
5.03400 0.11977
5.03600 0.02226
5.03800 -0.03279
5.04000 0.04540
5.04200 -0.00708
5.04400 0.05595
5.04600 0.01861
5.04800 -0.05584
5.05000 -0.06633
5.05200 -0.08431
5.05400 -0.00934
5.05600 0.02240
5.05800 -0.00546
5.06000 0.06704
5.06200 -0.02759
5.06400 0.10009
5.06600 0.01150
5.06800 0.07066
5.07000 0.03722
5.07200 -0.03983
5.07400 0.04259
5.07600 -0.02100
5.07800 -0.00646
5.08000 -0.01384
5.08200 -0.03055
5.08400 -0.02039
5.08600 0.16714
5.08800 0.04126
5.09000 0.08179
5.09200 0.06927
5.09400 -0.02578
5.09600 0.08408
5.09800 0.04127
5.10000 0.09722
5.10200 -0.02323
5.10400 -0.07507
5.10600 0.06783
5.10800 0.01624
5.11000 -0.03619
5.11200 0.03776
5.11400 -0.03786
5.11600 -0.00665
5.11800 -0.03353
5.12000 0.12949
5.12200 0.06328
5.12400 0.00099
5.12600 -0.02228
5.12800 0.07328
5.13000 -0.07879
5.13200 -0.11438
5.13400 0.02290
5.13600 -0.00058
5.13800 0.09901
5.14000 0.03377
5.14200 -0.10711
5.14400 -0.02163
5.14600 -0.09900
5.14800 0.07533
5.15000 -0.02939
5.15200 0.01027
5.15400 -0.00434
5.15600 0.00483
5.15800 -0.02601
5.16000 0.00407
5.16200 0.01306
5.16400 -0.00877
5.16600 0.00487
5.16800 -0.08596
5.17000 -0.05831
5.17200 -0.04373
5.17400 -0.04774
5.17600 0.07083
5.17800 -0.14239
5.18000 0.05203
5.18200 -0.06760
5.18400 0.06444
5.18600 0.10560
5.18800 0.01339
5.19000 0.06049
5.19200 -0.13940
5.19400 0.06526
5.19600 -0.00100
5.19800 -0.03300
5.20000 -0.01248
5.20200 0.02010
5.20400 0.03160
5.20600 -0.04240
5.20800 0.00229
5.21000 0.00369
5.21200 -0.03601
5.21400 -0.04728
5.21600 -0.03865
5.21800 -0.00532
5.22000 0.06339
5.22200 0.01448
5.22400 0.02360
5.22600 -0.03715
5.22800 -0.01807
5.23000 -0.01496
5.23200 0.18475
5.23400 0.57085
5.23600 1.13530
5.23800 1.56276
5.24000 1.27840
5.24200 0.49942
5.24400 0.32920
5.24600 0.07401
5.24800 -0.00655
5.25000 -0.08260
5.25200 0.02898
5.25400 -0.04896
5.25600 0.09664
5.25800 0.12980
5.26000 0.00507
5.26200 0.01951
5.26400 -0.17537
5.26600 -0.00960
5.26800 -0.01698
5.27000 -0.07457
5.27200 0.01089
5.27400 0.00741
5.27600 -0.06738
5.27800 -0.00536
5.28000 -0.02145
5.28200 0.05678
5.28400 -0.05238
5.28600 -0.02650
5.28800 0.08757
5.29000 -0.02363
5.29200 -0.05932
5.29400 -0.03845
5.29600 0.00744
5.29800 -0.13650
5.30000 0.10397
5.30200 -0.07560
5.30400 -0.03913
5.30600 0.05013
5.30800 -0.00068
5.31000 0.00004
5.31200 0.10837
5.31400 0.02851
5.31600 -0.15104
5.31800 0.01788
5.32000 -0.03229
5.32200 0.04350
5.32400 -0.01918
5.32600 0.01445
5.32800 0.04968
5.33000 0.02807
5.33200 0.12344
5.33400 0.12802
5.33600 0.03577
5.33800 -0.02736
5.34000 0.04907
5.34200 0.06228
5.34400 -0.01668
5.34600 -0.04952
5.34800 0.00547
5.35000 0.07971
5.35200 -0.02226
5.35400 -0.03822
5.35600 0.16382
5.35800 0.03043
5.36000 0.07084
5.36200 0.09036
5.36400 0.04293
5.36600 0.02771
5.36800 0.00250
5.37000 -0.01553
5.37200 -0.02837
5.37400 -0.02536
5.37600 0.01272
5.37800 -0.01527
5.38000 -0.08131
5.38200 -0.05363
5.38400 -0.16226
5.38600 0.11227
5.38800 0.03090
5.39000 -0.05134
5.39200 -0.04812
5.39400 -0.04097
5.39600 -0.03758
5.39800 -0.12934
5.40000 0.04388
5.40200 -0.03346
5.40400 0.08321
5.40600 0.00359
5.40800 -0.10125
5.41000 0.10028
5.41200 0.03565
5.41400 -0.02993
5.41600 -0.08005
5.41800 0.00760
5.42000 -0.02429
5.42200 0.01195
5.42400 0.05537
5.42600 -0.00859
5.42800 -0.02566
5.43000 -0.06442
5.43200 -0.01092
5.43400 0.07070
5.43600 0.02260
5.43800 -0.07978
5.44000 0.05839
5.44200 0.05326
5.44400 -0.06939
5.44600 -0.10671
5.44800 -0.00528
5.45000 -0.05228
5.45200 -0.08139
5.45400 0.01433
5.45600 0.01292
5.45800 -0.07383
5.46000 0.03958
5.46200 0.09308
5.46400 0.04728
5.46600 -0.01268
5.46800 -0.04205
5.47000 0.08561
5.47200 0.10161
5.47400 0.04926
5.47600 0.09402
5.47800 0.01697
5.48000 0.07791
5.48200 -0.07888
5.48400 0.00261
5.48600 -0.10785
5.48800 0.00949
5.49000 -0.06356
5.49200 0.04907
5.49400 -0.02888
5.49600 -0.01570
5.49800 0.06645
5.50000 0.00976
5.50200 -0.04410
5.50400 -0.02542
5.50600 0.01394
5.50800 -0.02765
5.51000 0.03349
5.51200 0.05362
5.51400 0.06796
5.51600 0.00909
5.51800 -0.03460
5.52000 0.05734
5.52200 -0.05627
5.52400 0.02118
5.52600 0.02075
5.52800 -0.05198
5.53000 0.04235
5.53200 -0.10124
5.53400 0.07939
5.53600 -0.05010
5.53800 -0.03199
5.54000 0.06345
5.54200 -0.06531
5.54400 0.06655
5.54600 -0.06474
5.54800 0.02737
5.55000 -0.01663
5.55200 -0.09806
5.55400 -0.06920
5.55600 0.05014
5.55800 0.00131
5.56000 0.02579
5.56200 0.04319
5.56400 0.02561
5.56600 0.02078
5.56800 -0.11824
5.57000 -0.03360
5.57200 0.03319
5.57400 -0.01828
5.57600 -0.03554
5.57800 -0.06754
5.58000 -0.03927
5.58200 0.00895
5.58400 -0.01870
5.58600 0.09514
5.58800 -0.02743
5.59000 -0.09633
5.59200 0.10333
5.59400 -0.02761
5.59600 0.04060
5.59800 -0.08567
5.60000 -0.01416
5.60200 0.07617
5.60400 0.05041
5.60600 -0.12640
5.60800 -0.10157
5.61000 0.06748
5.61200 -0.05199
5.61400 0.03185
5.61600 -0.02155
5.61800 -0.06219
5.62000 -0.00129
5.62200 -0.00817
5.62400 0.01109
5.62600 -0.04979
5.62800 0.01630
5.63000 -0.03684
5.63200 0.09199
5.63400 -0.03649
5.63600 0.01525
5.63800 -0.05530
5.64000 -0.07971
5.64200 -0.00773
5.64400 -0.08747
5.64600 -0.05217
5.64800 -0.09319
5.65000 -0.04192
5.65200 -0.01425
5.65400 0.01959
5.65600 0.00999
5.65800 0.13502
5.66000 0.06869
5.66200 0.00426
5.66400 -0.05914
5.66600 0.03283
5.66800 0.05490
5.67000 0.00326
5.67200 -0.06075
5.67400 0.00581
5.67600 -0.06447
5.67800 -0.04702
5.68000 0.00812
5.68200 -0.05525
5.68400 -0.12210
5.68600 0.10794
5.68800 -0.06339
5.69000 -0.01700
5.69200 -0.02574
5.69400 -0.05767
5.69600 0.03074
5.69800 0.02510
5.70000 0.00804
5.70200 0.06132
5.70400 -0.02008
5.70600 0.03931
5.70800 -0.02962
5.71000 0.05464
5.71200 -0.09846
5.71400 -0.01242
5.71600 0.00547
5.71800 -0.07399
5.72000 0.05059
5.72200 -0.00210
5.72400 0.00656
5.72600 0.02332
5.72800 0.02818
5.73000 -0.05643
5.73200 0.01650
5.73400 -0.04574
5.73600 -0.08197
5.73800 0.10887
5.74000 0.02789
5.74200 -0.00566
5.74400 0.04127
5.74600 0.04044
5.74800 -0.01020
5.75000 0.09930
5.75200 0.04417
5.75400 -0.00275
5.75600 -0.00186
5.75800 0.00848
5.76000 0.11676
5.76200 0.00485
5.76400 0.01157
5.76600 -0.04849
5.76800 -0.07256
5.77000 0.10954
5.77200 0.02343
5.77400 0.02399
5.77600 -0.03481
5.77800 0.03970
5.78000 0.02829
5.78200 0.08347
5.78400 -0.05009
5.78600 0.06939
5.78800 -0.09454
5.79000 -0.00980
5.79200 0.01085
5.79400 0.01987
5.79600 -0.06358
5.79800 0.01679
5.80000 -0.00580
5.80200 -0.00844
5.80400 -0.00442
5.80600 -0.02838
5.80800 -0.18171
5.81000 -0.07274
5.81200 -0.04343
5.81400 0.01250
5.81600 0.04518
5.81800 -0.04984
5.82000 0.02928
5.82200 -0.00527
5.82400 0.04732
5.82600 0.10635
5.82800 0.00315
5.83000 0.07010
5.83200 0.01579
5.83400 0.05074
5.83600 -0.07260
5.83800 0.00061
5.84000 -0.05018
5.84200 0.04714
5.84400 0.04787
5.84600 -0.00427
5.84800 -0.08778
5.85000 0.02304
5.85200 0.02950
5.85400 0.00318
5.85600 0.02481
5.85800 0.05621
5.86000 -0.05206
5.86200 0.03271
5.86400 -0.00027
5.86600 -0.04219
5.86800 0.00783
5.87000 0.02477
5.87200 0.00578
5.87400 -0.22923
5.87600 0.10028
5.87800 0.03202
5.88000 0.05845
5.88200 -0.02271
5.88400 -0.10072
5.88600 -0.04242
5.88800 -0.09827
5.89000 -0.04037
5.89200 0.03659
5.89400 0.06482
5.89600 0.04439
5.89800 0.05564
5.90000 -0.03032
5.90200 0.00421
5.90400 -0.05393
5.90600 0.00376
5.90800 0.06235
5.91000 -0.00971
5.91200 0.05009
5.91400 0.10291
5.91600 -0.01858
5.91800 -0.08524
5.92000 -0.01371
5.92200 0.02883
5.92400 -0.01278
5.92600 0.06737
5.92800 -0.06525
5.93000 -0.08067
5.93200 -0.00241
5.93400 0.00223
5.93600 -0.07509
5.93800 -0.05622
5.94000 0.11464
5.94200 0.04463
5.94400 0.01282
5.94600 -0.08303
5.94800 -0.01152
5.95000 0.09576
5.95200 0.00487
5.95400 -0.06389
5.95600 0.00985
5.95800 -0.04939
5.96000 0.08356
5.96200 0.09606
5.96400 0.06490
5.96600 0.05231
5.96800 -0.01132
5.97000 0.02290
5.97200 -0.04888
5.97400 -0.03148
5.97600 0.00666
5.97800 -0.05541
5.98000 -0.02001
5.98200 0.00342
5.98400 0.05736
5.98600 -0.01220
5.98800 0.01349
5.99000 -0.01732
5.99200 -0.06978
5.99400 0.03208
5.99600 -0.19238
5.99800 -0.07718
6.00000 -0.09878
6.00200 -0.03283
6.00400 -0.06486
6.00600 -0.03023
6.00800 0.04742
6.01000 0.05471
6.01200 -0.05687
6.01400 0.07588
6.01600 0.05782
6.01800 -0.05148
6.02000 -0.04815
6.02200 0.05540
6.02400 -0.01678
6.02600 -0.06965
6.02800 0.02735
6.03000 -0.05342
6.03200 -0.01597
6.03400 -0.06346
6.03600 0.06036
6.03800 -0.04788
6.04000 -0.05643
6.04200 0.06782
6.04400 0.00096
6.04600 0.00081
6.04800 -0.04574
6.05000 0.05517
6.05200 -0.09675
6.05400 0.00312
6.05600 0.01711
6.05800 -0.04990
6.06000 -0.00783
6.06200 -0.04218
6.06400 -0.02537
6.06600 0.02826
6.06800 0.11168
6.07000 -0.10219
6.07200 0.04332
6.07400 -0.07020
6.07600 -0.06211
6.07800 0.06895
6.08000 0.06139
6.08200 -0.01203
6.08400 -0.01718
6.08600 0.04375
6.08800 0.04920
6.09000 0.02939
6.09200 -0.02214
6.09400 0.02541
6.09600 0.03482
6.09800 0.09724
6.10000 -0.07925
6.10200 -0.12482
6.10400 -0.02234
6.10600 -0.01596
6.10800 -0.02020
6.11000 0.04419
6.11200 -0.08821
6.11400 -0.09985
6.11600 -0.09101
6.11800 0.06899
6.12000 0.13025
6.12200 0.00843
6.12400 0.03487
6.12600 -0.06755
6.12800 -0.01837
6.13000 0.01881
6.13200 -0.00704
6.13400 -0.06534
6.13600 -0.18192
6.13800 -0.11031
6.14000 -0.00667
6.14200 0.11654
6.14400 0.01713
6.14600 -0.05491
6.14800 0.09979
6.15000 -0.00409
6.15200 -0.01921
6.15400 -0.01601
6.15600 0.09699
6.15800 0.01215
6.16000 -0.14033
6.16200 -0.00194
6.16400 -0.08792
6.16600 0.06364
6.16800 0.00576
6.17000 0.03257
6.17200 0.00414
6.17400 -0.08945
6.17600 -0.00430
6.17800 0.01445
6.18000 0.04055
6.18200 0.04137
6.18400 0.13975
6.18600 0.47320
6.18800 1.00013
6.19000 1.55708
6.19200 1.24586
6.19400 0.72975
6.19600 0.30896
6.19800 0.00102
6.20000 0.10037
6.20200 -0.05776
6.20400 -0.00909
6.20600 0.02508
6.20800 0.06366
6.21000 -0.07048
6.21200 0.04395
6.21400 -0.06530
6.21600 0.11385
6.21800 0.08347
6.22000 -0.06668
6.22200 -0.00320
6.22400 0.00584
6.22600 -0.04213
6.22800 -0.04825
6.23000 0.08827
6.23200 0.01651
6.23400 0.08326
6.23600 -0.06090
6.23800 0.10699
6.24000 0.04558
6.24200 0.07409
6.24400 -0.13323
6.24600 0.00837
6.24800 -0.03799
6.25000 -0.01243
6.25200 -0.06032
6.25400 -0.03462
6.25600 0.07872
6.25800 -0.03506
6.26000 -0.00794
6.26200 -0.17308
6.26400 0.02194
6.26600 -0.03980
6.26800 0.11536
6.27000 0.03191
6.27200 -0.01959
6.27400 -0.00884
6.27600 -0.06198
6.27800 -0.03953
6.28000 0.00535
6.28200 0.03326
6.28400 -0.00350
6.28600 -0.06197
6.28800 -0.02670
6.29000 0.01242
6.29200 0.02158
6.29400 -0.04338
6.29600 0.13449
6.29800 0.07039
6.30000 -0.00906
6.30200 -0.07804
6.30400 0.06016
6.30600 -0.03249
6.30800 -0.01511
6.31000 -0.01840
6.31200 -0.09760
6.31400 -0.07350
6.31600 0.03024
6.31800 0.01289
6.32000 0.01970
6.32200 0.08869
6.32400 -0.05867
6.32600 0.02391
6.32800 0.03878
6.33000 0.00196
6.33200 0.05866
6.33400 -0.00974
6.33600 0.06274
6.33800 0.00076
6.34000 0.06112
6.34200 0.01898
6.34400 0.01548
6.34600 -0.01186
6.34800 0.01388
6.35000 0.05596
6.35200 0.04928
6.35400 0.02581
6.35600 -0.02534
6.35800 0.15993
6.36000 0.01164
6.36200 -0.06234
6.36400 0.01526
6.36600 0.06348
6.36800 0.08234
6.37000 0.05632
6.37200 0.00404
6.37400 -0.08421
6.37600 -0.00832
6.37800 0.07644
6.38000 0.06360
6.38200 -0.01413
6.38400 0.03258
6.38600 0.05292
6.38800 -0.07231
6.39000 0.04879
6.39200 0.03685
6.39400 0.07999
6.39600 -0.01103
6.39800 0.06578
6.40000 -0.06741
6.40200 -0.02496
6.40400 0.10723
6.40600 -0.06796
6.40800 0.01224
6.41000 0.05297
6.41200 0.02348
6.41400 0.06041
6.41600 0.02689
6.41800 -0.01640
6.42000 -0.02305
6.42200 0.06799
6.42400 -0.08643
6.42600 -0.02673
6.42800 0.00041
6.43000 0.02957
6.43200 0.05230
6.43400 -0.12465
6.43600 -0.07342
6.43800 0.00320
6.44000 0.12637
6.44200 -0.05190
6.44400 0.04002
6.44600 0.02108
6.44800 -0.04402
6.45000 0.04379
6.45200 -0.04028
6.45400 -0.00841
6.45600 -0.06978
6.45800 -0.02337
6.46000 0.15085
6.46200 -0.12927
6.46400 0.01006
6.46600 0.03762
6.46800 0.01766
6.47000 -0.00293
6.47200 0.04306
6.47400 0.08463
6.47600 -0.01851
6.47800 -0.11059
6.48000 0.08707
6.48200 -0.07868
6.48400 0.09310
6.48600 -0.06555
6.48800 0.01340
6.49000 0.03502
6.49200 -0.09897
6.49400 0.02762
6.49600 -0.01495
6.49800 -0.08655
6.50000 0.08870
6.50200 -0.00477
6.50400 0.03807
6.50600 0.05200
6.50800 -0.02397
6.51000 -0.04514
6.51200 0.00895
6.51400 0.02593
6.51600 -0.08442
6.51800 0.02616
6.52000 0.00533
6.52200 0.07398
6.52400 0.08545
6.52600 -0.02287
6.52800 0.06479
6.53000 -0.12716
6.53200 -0.00155
6.53400 0.03343
6.53600 -0.11590
6.53800 -0.08344
6.54000 0.07833
6.54200 0.03809
6.54400 0.12978
6.54600 -0.01917
6.54800 0.03185
6.55000 -0.04765
6.55200 0.08891
6.55400 0.01931
6.55600 -0.05451
6.55800 -0.06169
6.56000 0.06062
6.56200 0.03114
6.56400 -0.06448
6.56600 -0.00920
6.56800 -0.05928
6.57000 -0.05314
6.57200 0.00555
6.57400 -0.00762
6.57600 -0.03887
6.57800 -0.09422
6.58000 0.13120
6.58200 -0.02448
6.58400 -0.02690
6.58600 -0.02590
6.58800 -0.00078
6.59000 0.03280
6.59200 -0.01465
6.59400 0.03449
6.59600 0.06438
6.59800 -0.02441
6.60000 -0.04717
6.60200 0.01944
6.60400 0.09607
6.60600 0.11173
6.60800 0.00508
6.61000 0.00751
6.61200 -0.00365
6.61400 0.05405
6.61600 -0.07388
6.61800 -0.07338
6.62000 -0.02662
6.62200 0.05607
6.62400 0.10824
6.62600 0.01779
6.62800 0.05390
6.63000 -0.05217
6.63200 -0.08383
6.63400 -0.04112
6.63600 0.01632
6.63800 0.07389
6.64000 0.06288
6.64200 -0.00574
6.64400 0.03618
6.64600 0.01926
6.64800 0.01202
6.65000 -0.00380
6.65200 -0.19914
6.65400 0.07004
6.65600 -0.01112
6.65800 -0.05465
6.66000 -0.06480
6.66200 0.03254
6.66400 0.01496
6.66600 0.09356
6.66800 0.02989
6.67000 0.03398
6.67200 -0.00983
6.67400 -0.02556
6.67600 -0.00036
6.67800 -0.05567
6.68000 -0.01530
6.68200 -0.03630
6.68400 0.02233
6.68600 -0.02911
6.68800 -0.00737
6.69000 0.01811
6.69200 0.05538
6.69400 0.08225
6.69600 0.02229
6.69800 -0.10072
6.70000 0.05490
6.70200 -0.06169
6.70400 0.04896
6.70600 -0.04372
6.70800 -0.07248
6.71000 -0.06115
6.71200 0.07556
6.71400 0.01581
6.71600 -0.08143
6.71800 0.03800
6.72000 -0.03475
6.72200 -0.07073
6.72400 -0.09719
6.72600 0.08986
6.72800 0.06328
6.73000 0.11544
6.73200 0.00706
6.73400 0.01883
6.73600 0.00091
6.73800 -0.00357
6.74000 0.04796
6.74200 -0.07870
6.74400 -0.04266
6.74600 -0.08459
6.74800 -0.06690
6.75000 -0.11595
6.75200 -0.00900
6.75400 -0.02398
6.75600 -0.04102
6.75800 -0.00268
6.76000 0.08437
6.76200 -0.12188
6.76400 0.13934
6.76600 0.04995
6.76800 -0.00600
6.77000 -0.01477
6.77200 0.08695
6.77400 -0.05768
6.77600 -0.01436
6.77800 0.05418
6.78000 -0.05425
6.78200 0.04168
6.78400 -0.01284
6.78600 0.06222
6.78800 -0.01195
6.79000 -0.02591
6.79200 -0.01623
6.79400 0.00614
6.79600 -0.06442
6.79800 -0.09506
6.80000 -0.05671
6.80200 -0.10985
6.80400 -0.02592
6.80600 -0.06082
6.80800 0.02877
6.81000 0.08198
6.81200 -0.00021
6.81400 -0.03389
6.81600 0.08590
6.81800 -0.15055
6.82000 0.04592
6.82200 -0.03445
6.82400 0.04434
6.82600 -0.04028
6.82800 0.02822
6.83000 -0.08855
6.83200 0.03754
6.83400 0.03358
6.83600 0.03238
6.83800 -0.05232
6.84000 0.10076
6.84200 0.07263
6.84400 -0.06406
6.84600 -0.03764
6.84800 0.02517
6.85000 0.10235
6.85200 0.04024
6.85400 0.01277
6.85600 0.01757
6.85800 0.00016
6.86000 -0.04813
6.86200 -0.01148
6.86400 -0.05125
6.86600 -0.05986
6.86800 -0.09058
6.87000 -0.06349
6.87200 -0.05405
6.87400 0.03910
6.87600 -0.10400
6.87800 -0.10326
6.88000 -0.04283
6.88200 0.00155
6.88400 0.05646
6.88600 -0.03039
6.88800 0.02599
6.89000 0.06788
6.89200 -0.01582
6.89400 -0.03493
6.89600 0.01639
6.89800 0.00777
6.90000 0.03730
6.90200 0.06208
6.90400 -0.06379
6.90600 0.08796
6.90800 0.14240
6.91000 0.08885
6.91200 0.06237
6.91400 -0.05905
6.91600 -0.00339
6.91800 -0.01283
6.92000 -0.01636
6.92200 0.01772
6.92400 -0.09271
6.92600 -0.00724
6.92800 0.19395
6.93000 0.03213
6.93200 -0.01275
6.93400 0.02171
6.93600 0.06237
6.93800 0.04169
6.94000 0.06613
6.94200 -0.13581
6.94400 0.02555
6.94600 0.04702
6.94800 0.00145
6.95000 0.06090
6.95200 -0.01171
6.95400 0.08581
6.95600 -0.00235
6.95800 0.00234
6.96000 0.00730
6.96200 0.06193
6.96400 -0.03421
6.96600 0.04161
6.96800 0.06427
6.97000 -0.01875
6.97200 0.09094
6.97400 0.10215
6.97600 0.00423
6.97800 -0.02670
6.98000 0.05302
6.98200 -0.00296
6.98400 0.02283
6.98600 0.03347
6.98800 -0.00200
6.99000 0.01466
6.99200 0.02544
6.99400 0.00442
6.99600 -0.07746
6.99800 -0.04690
7.00000 0.02302
7.00200 -0.04256
7.00400 0.03576
7.00600 0.05705
7.00800 0.04929
7.01000 -0.08758
7.01200 0.07968
7.01400 0.04236
7.01600 0.01735
7.01800 0.00281
7.02000 0.00985
7.02200 -0.02442
7.02400 0.01004
7.02600 0.03325
7.02800 -0.00897
7.03000 -0.00564
7.03200 0.10738
7.03400 0.08129
7.03600 0.04317
7.03800 0.05888
7.04000 0.02041
7.04200 -0.09428
7.04400 -0.00560
7.04600 0.03220
7.04800 0.06012
7.05000 0.00134
7.05200 -0.05348
7.05400 0.13365
7.05600 -0.02981
7.05800 -0.00236
7.06000 0.04926
7.06200 -0.03237
7.06400 -0.04547
7.06600 -0.05293
7.06800 -0.01709
7.07000 -0.12361
7.07200 -0.00409
7.07400 0.03043
7.07600 0.01885
7.07800 -0.10973
7.08000 0.13615
7.08200 0.04956
7.08400 0.04130
7.08600 -0.08744
7.08800 -0.02404
7.09000 -0.01482
7.09200 0.03239
7.09400 0.02229
7.09600 -0.05674
7.09800 0.00362
7.10000 0.02726
7.10200 -0.15877
7.10400 0.03784
7.10600 -0.09096
7.10800 0.01391
7.11000 -0.04295
7.11200 0.00116
7.11400 -0.01783
7.11600 0.03559
7.11800 0.00660
7.12000 0.01128
7.12200 0.07861
7.12400 -0.01191
7.12600 -0.04089
7.12800 -0.02108
7.13000 -0.04124
7.13200 -0.10260
7.13400 0.00930
7.13600 0.11896
7.13800 0.40780
7.14000 0.92785
7.14200 1.40664
7.14400 1.39541
7.14600 0.84132
7.14800 0.38947
7.15000 0.02947
7.15200 0.04554
7.15400 0.16460
7.15600 0.00656
7.15800 0.01881
7.16000 -0.00671
7.16200 0.03354
7.16400 0.03703
7.16600 -0.07926
7.16800 0.01288
7.17000 -0.00068
7.17200 -0.04216
7.17400 0.05610
7.17600 -0.03446
7.17800 -0.01537
7.18000 -0.03381
7.18200 0.05880
7.18400 0.07514
7.18600 -0.05361
7.18800 -0.02733
7.19000 -0.00835
7.19200 -0.08302
7.19400 -0.00279
7.19600 0.02216
7.19800 0.01620
7.20000 0.04051
7.20200 0.00943
7.20400 -0.00372
7.20600 0.02838
7.20800 0.00649
7.21000 -0.08899
7.21200 0.07615
7.21400 -0.09446
7.21600 0.08686
7.21800 0.00099
7.22000 -0.07061
7.22200 0.05104
7.22400 0.12222
7.22600 0.03821
7.22800 0.09753
7.23000 -0.03809
7.23200 0.08901
7.23400 0.00648
7.23600 -0.06991
7.23800 -0.04339
7.24000 -0.06928
7.24200 0.00955
7.24400 0.06577
7.24600 0.14804
7.24800 -0.13545
7.25000 0.02392
7.25200 0.02745
7.25400 0.01981
7.25600 0.10551
7.25800 -0.02133
7.26000 -0.03667
7.26200 -0.05370
7.26400 -0.03030
7.26600 -0.06888
7.26800 -0.01708
7.27000 0.07762
7.27200 -0.06618
7.27400 0.00683
7.27600 -0.08945
7.27800 -0.08991
7.28000 -0.12786
7.28200 0.02884
7.28400 -0.08220
7.28600 -0.00667
7.28800 0.00643
7.29000 0.09383
7.29200 -0.07476
7.29400 0.05170
7.29600 -0.00478
7.29800 -0.02027
7.30000 -0.02639
7.30200 0.00796
7.30400 0.08158
7.30600 -0.05342
7.30800 0.10801
7.31000 -0.02609
7.31200 0.11539
7.31400 -0.08669
7.31600 0.04573
7.31800 0.06334
7.32000 0.02343
7.32200 0.09942
7.32400 0.02310
7.32600 0.02110
7.32800 0.05999
7.33000 -0.03812
7.33200 0.05464
7.33400 -0.04733
7.33600 -0.03301
7.33800 0.09778
7.34000 -0.11443
7.34200 -0.05852
7.34400 0.05335
7.34600 -0.07363
7.34800 0.05278
7.35000 0.02145
7.35200 0.02831
7.35400 0.06575
7.35600 -0.06869
7.35800 0.10264
7.36000 -0.03160
7.36200 -0.04051
7.36400 -0.01526
7.36600 -0.01860
7.36800 -0.08730
7.37000 -0.05720
7.37200 0.01482
7.37400 0.08261
7.37600 -0.00679
7.37800 -0.03602
7.38000 0.04164
7.38200 0.00207
7.38400 -0.00872
7.38600 0.01128
7.38800 -0.01249
7.39000 -0.00760
7.39200 0.01800
7.39400 -0.06143
7.39600 0.02698
7.39800 -0.03217
7.40000 -0.06226
7.40200 -0.09514
7.40400 0.04918
7.40600 -0.01917
7.40800 0.07411
7.41000 -0.05816
7.41200 0.00309
7.41400 -0.01432
7.41600 -0.01753
7.41800 0.06887
7.42000 0.01874
7.42200 -0.02282
7.42400 -0.03132
7.42600 -0.10478
7.42800 -0.01358
7.43000 0.07127
7.43200 0.05343
7.43400 0.00711
7.43600 0.03389
7.43800 -0.04360
7.44000 0.06217
7.44200 -0.05430
7.44400 -0.03610
7.44600 -0.01558
7.44800 0.11647
7.45000 -0.02595
7.45200 0.05620
7.45400 0.06294
7.45600 -0.00122
7.45800 -0.06926
7.46000 0.01209
7.46200 -0.06950
7.46400 0.09152
7.46600 0.12913
7.46800 0.08379
7.47000 0.06346
7.47200 0.06156
7.47400 -0.01978
7.47600 -0.09399
7.47800 -0.06633
7.48000 -0.05101
7.48200 -0.05443
7.48400 -0.01239
7.48600 -0.07037
7.48800 0.10452
7.49000 0.03334
7.49200 -0.00311
7.49400 0.01259
7.49600 0.02883
7.49800 0.00446
7.50000 0.03526
7.50200 0.00209
7.50400 -0.10815
7.50600 0.05048
7.50800 -0.01353
7.51000 -0.05069
7.51200 -0.08322
7.51400 0.03821
7.51600 0.03252
7.51800 -0.05869
7.52000 -0.03417
7.52200 0.00923
7.52400 0.02364
7.52600 0.04317
7.52800 0.02759
7.53000 -0.03672
7.53200 0.03104
7.53400 0.01805
7.53600 0.01817
7.53800 0.07350
7.54000 -0.00032
7.54200 0.00502
7.54400 -0.11400
7.54600 0.00821
7.54800 0.00436
7.55000 -0.05803
7.55200 0.06855
7.55400 -0.02282
7.55600 -0.07449
7.55800 0.03153
7.56000 -0.03967
7.56200 0.01236
7.56400 0.00017
7.56600 0.07782
7.56800 0.16472
7.57000 0.03462
7.57200 0.02721
7.57400 0.04259
7.57600 0.11303
7.57800 0.12618
7.58000 -0.07898
7.58200 -0.08078
7.58400 0.05738
7.58600 -0.04890
7.58800 0.03534
7.59000 -0.03309
7.59200 0.01085
7.59400 0.05374
7.59600 0.00205
7.59800 0.05174
7.60000 -0.05946
7.60200 0.09038
7.60400 -0.03377
7.60600 0.06695
7.60800 -0.12563
7.61000 0.06936
7.61200 0.01109
7.61400 0.03595
7.61600 0.00027
7.61800 0.02955
7.62000 -0.12546
7.62200 0.02782
7.62400 0.06484
7.62600 0.02310
7.62800 0.12095
7.63000 -0.07981
7.63200 0.05959
7.63400 -0.00683
7.63600 0.07030
7.63800 -0.06640
7.64000 -0.10959
7.64200 -0.10847
7.64400 0.00354
7.64600 -0.08388
7.64800 -0.01685
7.65000 -0.07153
7.65200 -0.06641
7.65400 -0.01865
7.65600 0.08717
7.65800 -0.02636
7.66000 -0.01967
7.66200 -0.13609
7.66400 -0.02335
7.66600 0.00599
7.66800 0.16084
7.67000 0.07492
7.67200 -0.00236
7.67400 -0.02670
7.67600 -0.04896
7.67800 0.00278
7.68000 -0.02043
7.68200 -0.08329
7.68400 -0.01506
7.68600 -0.04967
7.68800 0.00980
7.69000 0.13130
7.69200 0.03711
7.69400 -0.05091
7.69600 -0.13105
7.69800 0.01437
7.70000 0.02427
7.70200 0.01950
7.70400 -0.00468
7.70600 -0.06914
7.70800 -0.02970
7.71000 0.00128
7.71200 0.06029
7.71400 0.02862
7.71600 0.03778
7.71800 -0.09410
7.72000 0.04686
7.72200 0.01787
7.72400 -0.01392
7.72600 0.05039
7.72800 0.01919
7.73000 0.03342
7.73200 -0.06568
7.73400 0.03515
7.73600 -0.10028
7.73800 0.06649
7.74000 0.04457
7.74200 0.01904
7.74400 -0.18319
7.74600 0.08726
7.74800 0.03701
7.75000 0.04894
7.75200 0.03698
7.75400 0.06971
7.75600 0.02019
7.75800 -0.05032
7.76000 0.07732
7.76200 0.09471
7.76400 -0.00046
7.76600 -0.02988
7.76800 0.07315
7.77000 -0.01558
7.77200 0.07268
7.77400 0.01173
7.77600 -0.03236
7.77800 -0.07371
7.78000 -0.14648
7.78200 0.03439
7.78400 -0.08042
7.78600 0.02956
7.78800 0.02897
7.79000 0.00603
7.79200 -0.01098
7.79400 -0.06313
7.79600 -0.18727
7.79800 -0.00259
7.80000 -0.07019
7.80200 -0.11157
7.80400 -0.02086
7.80600 -0.00855
7.80800 -0.03805
7.81000 0.04684
7.81200 -0.03322
7.81400 -0.01334
7.81600 -0.01537
7.81800 -0.00360
7.82000 0.01368
7.82200 0.06478
7.82400 -0.00268
7.82600 0.04656
7.82800 -0.02738
7.83000 -0.04302
7.83200 0.02898
7.83400 -0.07112
7.83600 0.00533
7.83800 -0.01918
7.84000 0.11378
7.84200 0.04709
7.84400 -0.01572
7.84600 -0.02841
7.84800 0.14956
7.85000 -0.05054
7.85200 0.04825
7.85400 -0.02251
7.85600 0.07226
7.85800 0.06345
7.86000 -0.03314
7.86200 0.07050
7.86400 0.01552
7.86600 0.03070
7.86800 0.00320
7.87000 -0.01454
7.87200 -0.05505
7.87400 -0.02819
7.87600 -0.00679
7.87800 -0.07501
7.88000 -0.00078
7.88200 -0.01108
7.88400 0.05461
7.88600 -0.00164
7.88800 -0.06360
7.89000 0.10983
7.89200 -0.02919
7.89400 0.03071
7.89600 0.09627
7.89800 0.00681
7.90000 0.07474
7.90200 -0.07589
7.90400 0.00454
7.90600 -0.10304
7.90800 0.00457
7.91000 -0.13849
7.91200 0.00255
7.91400 -0.01015
7.91600 0.01924
7.91800 -0.06005
7.92000 -0.00594
7.92200 -0.00329
7.92400 -0.01032
7.92600 -0.09240
7.92800 0.06832
7.93000 0.04667
7.93200 -0.01246
7.93400 -0.02808
7.93600 -0.02821
7.93800 -0.05139
7.94000 -0.01283
7.94200 -0.03528
7.94400 0.07007
7.94600 0.02176
7.94800 0.05031
7.95000 0.03693
7.95200 -0.06406
7.95400 -0.03139
7.95600 0.12409
7.95800 0.05449
7.96000 0.04925
7.96200 -0.00527
7.96400 -0.00067
7.96600 0.01513
7.96800 0.05629
7.97000 0.01606
7.97200 -0.03740
7.97400 0.06629
7.97600 -0.08548
7.97800 -0.09188
7.98000 -0.06359
7.98200 0.00740
7.98400 0.10700
7.98600 -0.04456
7.98800 0.02276
7.99000 0.01689
7.99200 -0.01504
7.99400 -0.04610
7.99600 -0.00762
7.99800 0.06278
8.00000 -0.11311
8.00200 0.11961
8.00400 -0.03191
8.00600 0.04971
8.00800 0.06492
8.01000 0.05092
8.01200 0.12874
8.01400 -0.00743
8.01600 -0.04389
8.01800 -0.05973
8.02000 0.04233
8.02200 -0.03849
8.02400 -0.07830
8.02600 -0.00352
8.02800 0.03341
8.03000 0.07254
8.03200 0.00191
8.03400 -0.05033
8.03600 -0.03361
8.03800 0.06347
8.04000 -0.02848
8.04200 -0.04893
8.04400 0.00498
8.04600 -0.00751
8.04800 -0.08708
8.05000 -0.00130
8.05200 -0.06180
8.05400 0.08879
8.05600 0.01479
8.05800 -0.06697
8.06000 0.03336
8.06200 0.02909
8.06400 -0.04999
8.06600 -0.00016
8.06800 0.06519
8.07000 0.08946
8.07200 -0.08593
8.07400 -0.00321
8.07600 -0.04588
8.07800 0.01161
8.08000 -0.04339
8.08200 -0.08858
8.08400 0.02951
8.08600 -0.09022
8.08800 0.15483
8.09000 0.28737
8.09200 0.85523
8.09400 1.32676
8.09600 1.46270
8.09800 0.93381
8.10000 0.42684
8.10200 0.14863
8.10400 -0.00102
8.10600 0.02510
8.10800 0.09636
8.11000 -0.05147
8.11200 -0.06533
8.11400 0.10955
8.11600 0.07784
8.11800 0.03768
8.12000 -0.03877
8.12200 0.01960
8.12400 -0.10793
8.12600 0.02212
8.12800 0.00443
8.13000 0.06679
8.13200 0.00015
8.13400 -0.05048
8.13600 -0.01396
8.13800 -0.04332
8.14000 0.07396
8.14200 -0.00061
8.14400 0.02781
8.14600 -0.00003
8.14800 -0.02508
8.15000 -0.00195
8.15200 0.05614
8.15400 0.02599
8.15600 0.10242
8.15800 0.05652
8.16000 -0.03281
8.16200 0.03817
8.16400 -0.02657
8.16600 0.10871
8.16800 -0.06256
8.17000 -0.02800
8.17200 0.03853
8.17400 0.02638
8.17600 0.07188
8.17800 0.08828
8.18000 0.02652
8.18200 -0.05128
8.18400 0.00866
8.18600 0.06709
8.18800 0.04952
8.19000 -0.01591
8.19200 0.08606
8.19400 0.05126
8.19600 -0.06701
8.19800 0.01908
8.20000 0.12575
8.20200 0.02756
8.20400 0.09079
8.20600 0.09686
8.20800 -0.04476
8.21000 0.00974
8.21200 0.00967
8.21400 0.05231
8.21600 0.03600
8.21800 0.11494
8.22000 -0.15248
8.22200 -0.06535
8.22400 -0.05931
8.22600 0.02161
8.22800 0.03642
8.23000 0.01817
8.23200 -0.01148
8.23400 0.01819
8.23600 -0.01369
8.23800 -0.02108
8.24000 0.01471
8.24200 0.05305
8.24400 -0.00933
8.24600 0.01759
8.24800 0.11302
8.25000 0.01403
8.25200 0.02065
8.25400 -0.06190
8.25600 -0.00512
8.25800 -0.00056
8.26000 0.01752
8.26200 0.01452
8.26400 0.06457
8.26600 0.17552
8.26800 0.09550
8.27000 0.01264
8.27200 0.01533
8.27400 -0.05230
8.27600 0.03404
8.27800 -0.05266
8.28000 -0.06896
8.28200 0.01593
8.28400 0.00203
8.28600 -0.02816
8.28800 0.07118
8.29000 0.04338
8.29200 0.04893
8.29400 0.09644
8.29600 0.05608
8.29800 0.05228
8.30000 0.02764
8.30200 -0.08548
8.30400 0.02470
8.30600 0.09107
8.30800 -0.02178
8.31000 0.07277
8.31200 0.04426
8.31400 0.03504
8.31600 0.05983
8.31800 0.01730
8.32000 -0.02255
8.32200 -0.10235
8.32400 0.02866
8.32600 0.02675
8.32800 -0.05387
8.33000 -0.03161
8.33200 0.08335
8.33400 0.01364
8.33600 -0.05615
8.33800 -0.03430
8.34000 -0.05698
8.34200 0.01368
8.34400 0.03900
8.34600 0.00615
8.34800 0.07491
8.35000 -0.01023
8.35200 0.01506
8.35400 0.00104
8.35600 0.03150
8.35800 0.17121
8.36000 -0.03398
8.36200 -0.01461
8.36400 0.03453
8.36600 0.04220
8.36800 0.03880
8.37000 0.06458
8.37200 0.03654
8.37400 -0.01906
8.37600 0.02418
8.37800 -0.04731
8.38000 -0.01809
8.38200 -0.02795
8.38400 0.03020
8.38600 0.06955
8.38800 0.00678
8.39000 0.10264
8.39200 -0.02045
8.39400 -0.04906
8.39600 -0.05123
8.39800 -0.04295
8.40000 -0.03561
8.40200 0.06717
8.40400 -0.05652
8.40600 0.04785
8.40800 0.02725
8.41000 -0.02011
8.41200 0.01259
8.41400 -0.00860
8.41600 -0.00745
8.41800 -0.05833
8.42000 -0.05880
8.42200 -0.04785
8.42400 0.02730
8.42600 -0.05766
8.42800 -0.03445
8.43000 0.02678
8.43200 0.05678
8.43400 0.10683
8.43600 -0.06766
8.43800 0.06858
8.44000 -0.03799
8.44200 0.00469
8.44400 -0.11968
8.44600 -0.09322
8.44800 0.10772
8.45000 -0.04515
8.45200 0.03132
8.45400 -0.00195
8.45600 -0.04914
8.45800 -0.00144
8.46000 -0.06354
8.46200 -0.07053
8.46400 0.17132
8.46600 0.06075
8.46800 -0.11394
8.47000 0.01119
8.47200 -0.12600
8.47400 0.08785
8.47600 -0.01006
8.47800 0.04259
8.48000 0.00220
8.48200 0.08039
8.48400 0.01547
8.48600 -0.03040
8.48800 0.04113
8.49000 0.03528
8.49200 0.06682
8.49400 -0.06588
8.49600 -0.01748
8.49800 -0.05452
8.50000 0.08987
8.50200 0.03499
8.50400 -0.04522
8.50600 -0.05377
8.50800 -0.00976
8.51000 0.04160
8.51200 -0.04068
8.51400 -0.03604
8.51600 0.08038
8.51800 -0.05861
8.52000 0.02307
8.52200 -0.01648
8.52400 -0.04718
8.52600 0.02147
8.52800 -0.02978
8.53000 -0.05888
8.53200 -0.08141
8.53400 0.03380
8.53600 -0.00672
8.53800 0.06308
8.54000 -0.08854
8.54200 0.00224
8.54400 0.09313
8.54600 0.02875
8.54800 -0.01832
8.55000 0.01317
8.55200 0.12200
8.55400 -0.03554
8.55600 0.00801
8.55800 0.01493
8.56000 -0.11433
8.56200 -0.00229
8.56400 -0.02185
8.56600 0.01357
8.56800 -0.04028
8.57000 0.06934
8.57200 0.00168
8.57400 -0.03924
8.57600 -0.01217
8.57800 -0.01816
8.58000 -0.04432
8.58200 -0.04736
8.58400 0.01450
8.58600 0.10724
8.58800 -0.11989
8.59000 -0.00350
8.59200 0.06931
8.59400 -0.04037
8.59600 0.00729
8.59800 -0.03905
8.60000 0.01828
8.60200 0.14241
8.60400 0.00158
8.60600 0.02070
8.60800 -0.11254
8.61000 0.09240
8.61200 -0.04506
8.61400 -0.07978
8.61600 -0.03265
8.61800 -0.03591
8.62000 -0.00876
8.62200 0.00528
8.62400 0.00282
8.62600 -0.09333
8.62800 0.04502
8.63000 0.05964
8.63200 0.02904
8.63400 -0.03031
8.63600 0.05977
8.63800 0.00382
8.64000 -0.06832
8.64200 -0.07558
8.64400 -0.05397
8.64600 -0.02307
8.64800 -0.09713
8.65000 0.07816
8.65200 0.04838
8.65400 -0.01988
8.65600 -0.06547
8.65800 0.00378
8.66000 0.04948
8.66200 0.04737
8.66400 -0.01123
8.66600 0.04344
8.66800 -0.09873
8.67000 -0.04827
8.67200 -0.03933
8.67400 0.05515
8.67600 0.10198
8.67800 -0.01537
8.68000 0.03458
8.68200 0.00282
8.68400 0.05344
8.68600 0.14207
8.68800 0.03820
8.69000 -0.01157
8.69200 0.00135
8.69400 0.08627
8.69600 0.03770
8.69800 0.03653
8.70000 -0.03307
8.70200 0.05681
8.70400 0.05595
8.70600 -0.00737
8.70800 -0.04413
8.71000 0.04084
8.71200 -0.06659
8.71400 -0.09865
8.71600 -0.00138
8.71800 -0.08213
8.72000 0.04242
8.72200 0.03293
8.72400 0.05669
8.72600 -0.10831
8.72800 0.08376
8.73000 -0.06248
8.73200 -0.01577
8.73400 -0.05269
8.73600 -0.03965
8.73800 0.02833
8.74000 -0.01852
8.74200 -0.06838
8.74400 -0.01379
8.74600 -0.01178
8.74800 0.04204
8.75000 -0.12527
8.75200 -0.09137
8.75400 -0.04583
8.75600 -0.05727
8.75800 -0.07260
8.76000 0.08044
8.76200 -0.03304
8.76400 0.06590
8.76600 -0.04922
8.76800 -0.06263
8.77000 0.02160
8.77200 0.06865
8.77400 0.01082
8.77600 0.04428
8.77800 0.09588
8.78000 0.06340
8.78200 -0.05206
8.78400 0.00200
8.78600 -0.08224
8.78800 0.00615
8.79000 0.04093
8.79200 0.04664
8.79400 -0.01146
8.79600 0.04284
8.79800 0.08990
8.80000 0.09114
8.80200 0.08197
8.80400 -0.07879
8.80600 0.01281
8.80800 -0.03379
8.81000 -0.00809
8.81200 0.00571
8.81400 -0.06515
8.81600 0.01260
8.81800 -0.02304
8.82000 0.02685
8.82200 0.01370
8.82400 -0.09249
8.82600 -0.08609
8.82800 -0.07533
8.83000 -0.04522
8.83200 -0.01739
8.83400 0.03609
8.83600 -0.02890
8.83800 -0.03792
8.84000 -0.00632
8.84200 0.05346
8.84400 0.01390
8.84600 0.04729
8.84800 0.01027
8.85000 -0.02986
8.85200 0.00994
8.85400 -0.03066
8.85600 0.01382
8.85800 0.01415
8.86000 0.06540
8.86200 -0.05186
8.86400 -0.09868
8.86600 0.08966
8.86800 0.04849
8.87000 0.03352
8.87200 0.08480
8.87400 0.11001
8.87600 -0.01016
8.87800 -0.09068
8.88000 -0.07860
8.88200 -0.10976
8.88400 0.04643
8.88600 0.13985
8.88800 0.02627
8.89000 0.02916
8.89200 0.02081
8.89400 -0.03502
8.89600 -0.02854
8.89800 0.01662
8.90000 0.02304
8.90200 -0.04240
8.90400 0.03749
8.90600 0.05174
8.90800 0.05096
8.91000 0.00050
8.91200 0.01395
8.91400 -0.02315
8.91600 0.02978
8.91800 -0.15029
8.92000 0.11395
8.92200 0.00100
8.92400 -0.01809
8.92600 -0.05525
8.92800 0.02991
8.93000 -0.12132
8.93200 -0.03367
8.93400 -0.04118
8.93600 -0.01103
8.93800 0.05563
8.94000 -0.07229
8.94200 -0.00537
8.94400 0.04958
8.94600 0.07628
8.94800 -0.02802
8.95000 0.02426
8.95200 0.04608
8.95400 -0.05434
8.95600 0.00247
8.95800 -0.15964
8.96000 -0.06372
8.96200 -0.05329
8.96400 0.09257
8.96600 -0.08994
8.96800 -0.03598
8.97000 0.10038
8.97200 0.03578
8.97400 0.09646
8.97600 0.05358
8.97800 0.04695
8.98000 -0.01061
8.98200 0.04840
8.98400 0.04062
8.98600 -0.02978
8.98800 0.03120
8.99000 0.06784
8.99200 -0.04886
8.99400 0.03480
8.99600 -0.05573
8.99800 -0.00438
9.00000 -0.00369
9.00200 0.03665
9.00400 -0.05020
9.00600 -0.02793
9.00800 0.04425
9.01000 -0.00293
9.01200 0.04938
9.01400 -0.10765
9.01600 -0.05742
9.01800 0.00934
9.02000 -0.13959
9.02200 0.06692
9.02400 -0.06000
9.02600 0.07086
9.02800 -0.03060
9.03000 -0.07854
9.03200 -0.00878
9.03400 0.05686
9.03600 -0.07207
9.03800 -0.03831
9.04000 0.01886
9.04200 0.20763
9.04400 0.80071
9.04600 1.32162
9.04800 1.38861
9.05000 1.06176
9.05200 0.56078
9.05400 0.17742
9.05600 -0.03515
9.05800 0.02240
9.06000 0.12177
9.06200 -0.00504
9.06400 0.01271
9.06600 0.00011
9.06800 -0.00614
9.07000 -0.04146
9.07200 -0.07705
9.07400 -0.03227
9.07600 0.05854
9.07800 -0.07576
9.08000 -0.00632
9.08200 0.08445
9.08400 -0.05499
9.08600 -0.03332
9.08800 0.00202
9.09000 -0.00527
9.09200 -0.12362
9.09400 0.09230
9.09600 0.01786
9.09800 -0.09923
9.10000 0.07821
9.10200 -0.05063
9.10400 -0.02977
9.10600 -0.03549
9.10800 0.06908
9.11000 -0.06393
9.11200 0.00081
9.11400 0.01557
9.11600 0.11097
9.11800 0.10840
9.12000 0.06555
9.12200 0.08110
9.12400 -0.03314
9.12600 -0.09579
9.12800 0.02992
9.13000 -0.03158
9.13200 -0.00615
9.13400 -0.01430
9.13600 -0.10648
9.13800 -0.00763
9.14000 0.08817
9.14200 -0.07226
9.14400 -0.09806
9.14600 0.05940
9.14800 0.02283
9.15000 0.06374
9.15200 0.15983
9.15400 0.08615
9.15600 0.04152
9.15800 -0.02072
9.16000 0.03190
9.16200 0.00843
9.16400 0.10376
9.16600 0.05979
9.16800 -0.09305
9.17000 -0.04188
9.17200 -0.07465
9.17400 -0.01698
9.17600 -0.01769
9.17800 0.05281
9.18000 0.09435
9.18200 0.01611
9.18400 0.03878
9.18600 0.11338
9.18800 -0.04151
9.19000 0.04039
9.19200 0.03934
9.19400 -0.06210
9.19600 0.10166
9.19800 -0.01810
9.20000 0.13035
9.20200 0.08127
9.20400 0.01824
9.20600 -0.13777
9.20800 -0.06393
9.21000 0.12314
9.21200 -0.06612
9.21400 0.02957
9.21600 -0.12035
9.21800 0.06877
9.22000 0.07216
9.22200 0.05661
9.22400 -0.05950
9.22600 -0.09972
9.22800 -0.04678
9.23000 -0.03512
9.23200 -0.04304
9.23400 0.00783
9.23600 -0.02328
9.23800 0.10680
9.24000 0.05767
9.24200 0.08710
9.24400 0.08262
9.24600 -0.00024
9.24800 0.07369
9.25000 0.00943
9.25200 -0.06603
9.25400 0.05490
9.25600 0.09570
9.25800 0.01394
9.26000 -0.03775
9.26200 0.00115
9.26400 -0.06887
9.26600 -0.04513
9.26800 -0.07515
9.27000 0.03005
9.27200 -0.02816
9.27400 0.03333
9.27600 0.06518
9.27800 -0.04192
9.28000 0.05305
9.28200 0.03553
9.28400 -0.01407
9.28600 -0.02949
9.28800 -0.02889
9.29000 -0.06088
9.29200 0.04097
9.29400 -0.02343
9.29600 -0.02578
9.29800 -0.00499
9.30000 0.04185
9.30200 -0.04240
9.30400 0.07746
9.30600 0.05578
9.30800 0.09896
9.31000 -0.00366
9.31200 -0.09107
9.31400 0.03744
9.31600 0.01613
9.31800 0.07366
9.32000 0.02970
9.32200 -0.00579
9.32400 0.02790
9.32600 -0.07033
9.32800 0.05440
9.33000 0.02731
9.33200 0.04173
9.33400 0.05811
9.33600 -0.06562
9.33800 0.08078
9.34000 -0.06322
9.34200 -0.00540
9.34400 -0.04859
9.34600 -0.03280
9.34800 0.01339
9.35000 -0.01484
9.35200 -0.04276
9.35400 0.09226
9.35600 -0.03541
9.35800 0.00515
9.36000 0.02914
9.36200 0.00237
9.36400 -0.03346
9.36600 0.00641
9.36800 -0.01939
9.37000 0.00004
9.37200 -0.01557
9.37400 -0.11505
9.37600 -0.09612
9.37800 -0.02842
9.38000 0.04794
9.38200 -0.07567
9.38400 0.05224
9.38600 -0.02934
9.38800 -0.02198
9.39000 0.02875
9.39200 -0.05287
9.39400 -0.04815
9.39600 0.02198
9.39800 -0.02553
9.40000 -0.10251
9.40200 0.02127
9.40400 -0.05808
9.40600 -0.05092
9.40800 0.09087
9.41000 0.02489
9.41200 0.02027
9.41400 -0.04377
9.41600 0.09090
9.41800 -0.10165
9.42000 -0.01457
9.42200 -0.11036
9.42400 -0.04396
9.42600 -0.03494
9.42800 0.06031
9.43000 0.03094
9.43200 -0.01419
9.43400 0.03840
9.43600 -0.05792
9.43800 0.04610
9.44000 -0.02256
9.44200 -0.05459
9.44400 0.00879
9.44600 0.04897
9.44800 -0.06786
9.45000 -0.07199
9.45200 0.03645
9.45400 0.08859
9.45600 0.05474
9.45800 0.05254
9.46000 -0.11194
9.46200 0.00646
9.46400 -0.02530
9.46600 0.02017
9.46800 -0.02729
9.47000 -0.02203
9.47200 -0.07844
9.47400 -0.06255
9.47600 -0.04009
9.47800 0.02972
9.48000 -0.02911
9.48200 -0.00694
9.48400 -0.06028
9.48600 0.07807
9.48800 -0.08982
9.49000 -0.02126
9.49200 -0.05560
9.49400 -0.02821
9.49600 -0.07059
9.49800 -0.04040
9.50000 0.05108
9.50200 0.01614
9.50400 0.01261
9.50600 0.02270
9.50800 0.03295
9.51000 0.06777
9.51200 0.00494
9.51400 -0.03164
9.51600 0.01591
9.51800 -0.01133
9.52000 0.05196
9.52200 -0.03317
9.52400 0.05895
9.52600 0.02121
9.52800 -0.03411
9.53000 0.03775
9.53200 0.08569
9.53400 0.06558
9.53600 -0.04273
9.53800 -0.07899
9.54000 -0.10570
9.54200 -0.04092
9.54400 -0.07400
9.54600 -0.05508
9.54800 -0.02857
9.55000 0.19284
9.55200 -0.04301
9.55400 -0.08978
9.55600 0.13744
9.55800 0.12145
9.56000 -0.05317
9.56200 0.12083
9.56400 0.00287
9.56600 0.00371
9.56800 0.00142
9.57000 -0.11236
9.57200 0.05031
9.57400 -0.09971
9.57600 -0.02788
9.57800 0.00724
9.58000 -0.00549
9.58200 0.01977
9.58400 -0.00476
9.58600 -0.02728
9.58800 -0.04693
9.59000 -0.04184
9.59200 -0.05967
9.59400 0.00617
9.59600 -0.03511
9.59800 -0.04423
9.60000 -0.00078
9.60200 -0.04325
9.60400 0.01958
9.60600 0.00171
9.60800 -0.14278
9.61000 -0.02331
9.61200 -0.00215
9.61400 -0.03203
9.61600 -0.09734
9.61800 -0.12243
9.62000 -0.03179
9.62200 -0.02473
9.62400 -0.03592
9.62600 0.06902
9.62800 0.05960
9.63000 0.14680
9.63200 0.07260
9.63400 0.06113
9.63600 0.06162
9.63800 -0.00076
9.64000 0.05825
9.64200 -0.01304
9.64400 0.03442
9.64600 -0.07966
9.64800 0.01421
9.65000 -0.00989
9.65200 0.00639
9.65400 0.03850
9.65600 0.04772
9.65800 0.00179
9.66000 -0.08330
9.66200 -0.05216
9.66400 -0.02930
9.66600 -0.08822
9.66800 -0.02991
9.67000 -0.02706
9.67200 -0.11036
9.67400 0.00186
9.67600 0.07629
9.67800 0.01633
9.68000 -0.01263
9.68200 -0.03904
9.68400 -0.07393
9.68600 0.06577
9.68800 0.06783
9.69000 0.05866
9.69200 0.02066
9.69400 -0.06940
9.69600 0.01365
9.69800 -0.01890
9.70000 0.01644
9.70200 -0.05416
9.70400 -0.01494
9.70600 -0.01124
9.70800 -0.02236
9.71000 -0.11375
9.71200 0.01655
9.71400 -0.00280
9.71600 -0.10005
9.71800 -0.01831
9.72000 -0.00616
9.72200 0.03124
9.72400 -0.09899
9.72600 0.05391
9.72800 0.04511
9.73000 -0.02445
9.73200 0.01951
9.73400 0.11213
9.73600 0.04600
9.73800 0.00181
9.74000 0.07840
9.74200 0.06876
9.74400 0.00575
9.74600 0.10750
9.74800 -0.03001
9.75000 -0.06203
9.75200 -0.00324
9.75400 0.02259
9.75600 -0.01401
9.75800 0.01280
9.76000 0.06557
9.76200 0.00757
9.76400 0.00194
9.76600 -0.01374
9.76800 0.00198
9.77000 -0.02118
9.77200 0.05006
9.77400 -0.01580
9.77600 0.02836
9.77800 -0.14635
9.78000 0.00654
9.78200 0.03194
9.78400 0.00862
9.78600 0.05606
9.78800 0.01795
9.79000 0.03550
9.79200 -0.10444
9.79400 0.00508
9.79600 0.10214
9.79800 -0.07060
9.80000 -0.13043
9.80200 0.00618
9.80400 0.11864
9.80600 -0.01449
9.80800 -0.00776
9.81000 -0.07550
9.81200 0.01736
9.81400 0.10757
9.81600 0.09289
9.81800 -0.01401
9.82000 -0.05759
9.82200 0.05297
9.82400 -0.06835
9.82600 -0.05026
9.82800 0.06261
9.83000 -0.00983
9.83200 -0.03098
9.83400 -0.02774
9.83600 0.01479
9.83800 -0.01790
9.84000 0.11200
9.84200 0.03254
9.84400 -0.03038
9.84600 0.06151
9.84800 -0.10624
9.85000 -0.00471
9.85200 0.00987
9.85400 0.00770
9.85600 0.01138
9.85800 0.01695
9.86000 0.00866
9.86200 0.07486
9.86400 0.02229
9.86600 0.05313
9.86800 0.02158
9.87000 0.02658
9.87200 0.11141
9.87400 -0.05360
9.87600 -0.00862
9.87800 -0.07545
9.88000 0.08731
9.88200 0.04356
9.88400 -0.03466
9.88600 -0.04942
9.88800 -0.07134
9.89000 -0.04128
9.89200 -0.03591
9.89400 -0.02817
9.89600 -0.05600
9.89800 0.09177
9.90000 0.01637
9.90200 -0.08012
9.90400 0.01329
9.90600 0.03819
9.90800 -0.04743
9.91000 -0.10520
9.91200 0.06731
9.91400 0.07155
9.91600 0.02983
9.91800 -0.06479
9.92000 0.04613
9.92200 0.06565
9.92400 0.01583
9.92600 -0.00830
9.92800 -0.14250
9.93000 0.07538
9.93200 -0.05628
9.93400 -0.00792
9.93600 -0.07637
9.93800 -0.06299
9.94000 0.02411
9.94200 -0.03702
9.94400 -0.10845
9.94600 -0.05237
9.94800 0.04015
9.95000 -0.06666
9.95200 -0.01702
9.95400 -0.04311
9.95600 0.07113
9.95800 -0.06225
9.96000 0.03654
9.96200 -0.05447
9.96400 -0.05509
9.96600 0.00032
9.96800 -0.07423
9.97000 0.05160
9.97200 0.04625
9.97400 -0.00771
9.97600 0.05413
9.97800 -0.05458
9.98000 0.07581
9.98200 -0.11974
9.98400 0.01686
9.98600 0.03231
9.98800 -0.08206
9.99000 0.08171
9.99200 0.09292
9.99400 0.00704
9.99600 -0.13264
9.99800 -0.00082
