cas[s]  ekg[mV]
0.00000 -0.06635
0.00200 0.00972
0.00400 0.03970
0.00600 -0.07128
0.00800 0.03920
0.01000 0.00967
0.01200 0.02372
0.01400 0.06306
0.01600 0.03248
0.01800 -0.04921
0.02000 0.07402
0.02200 0.02747
0.02400 -0.05642
0.02600 -0.02681
0.02800 -0.01195
0.03000 0.03153
0.03200 0.04083
0.03400 -0.04554
0.03600 -0.05639
0.03800 0.13064
0.04000 -0.02322
0.04200 0.00151
0.04400 0.09239
0.04600 -0.03865
0.04800 -0.06771
0.05000 -0.09480
0.05200 0.18755
0.05400 0.07171
0.05600 0.01585
0.05800 0.05881
0.06000 0.04615
0.06200 -0.04834
0.06400 -0.00251
0.06600 0.02277
0.06800 -0.00157
0.07000 0.01570
0.07200 -0.01126
0.07400 -0.00265
0.07600 0.07817
0.07800 -0.08857
0.08000 -0.00002
0.08200 0.09800
0.08400 0.04594
0.08600 0.01512
0.08800 0.03647
0.09000 -0.01197
0.09200 0.02096
0.09400 -0.10567
0.09600 0.08353
0.09800 0.00265
0.10000 -0.02858
0.10200 -0.01016
0.10400 -0.08284
0.10600 -0.07006
0.10800 -0.05658
0.11000 -0.03793
0.11200 -0.10977
0.11400 0.14806
0.11600 -0.01576
0.11800 0.02732
0.12000 -0.11888
0.12200 -0.02079
0.12400 0.06673
0.12600 0.04494
0.12800 0.05134
0.13000 -0.02103
0.13200 -0.05525
0.13400 0.03835
0.13600 -0.12618
0.13800 0.11432
0.14000 -0.02525
0.14200 0.03680
0.14400 0.09613
0.14600 0.09698
0.14800 0.01042
0.15000 -0.07880
0.15200 -0.05413
0.15400 0.02683
0.15600 0.02627
0.15800 -0.05905
0.16000 0.09798
0.16200 0.00350
0.16400 -0.10269
0.16600 -0.09568
0.16800 -0.10342
0.17000 -0.01854
0.17200 0.11082
0.17400 -0.13260
0.17600 -0.00339
0.17800 -0.08258
0.18000 -0.07407
0.18200 0.07094
0.18400 -0.00999
0.18600 0.05815
0.18800 0.06288
0.19000 -0.08697
0.19200 0.10338
0.19400 0.03823
0.19600 0.02989
0.19800 -0.00993
0.20000 0.04260
0.20200 0.00100
0.20400 -0.06998
0.20600 -0.09729
0.20800 0.03547
0.21000 0.00226
0.21200 0.08997
0.21400 -0.05637
0.21600 -0.04144
0.21800 -0.12029
0.22000 -0.02036
0.22200 0.08250
0.22400 0.01542
0.22600 0.11802
0.22800 -0.05775
0.23000 0.01628
0.23200 0.01658
0.23400 -0.04363
0.23600 -0.01936
0.23800 -0.01181
0.24000 0.00608
0.24200 -0.06018
0.24400 -0.00387
0.24600 0.01899
0.24800 0.11497
0.25000 0.06709
0.25200 0.10008
0.25400 -0.02980
0.25600 -0.09993
0.25800 -0.02575
0.26000 0.03752
0.26200 0.01294
0.26400 0.02509
0.26600 0.06991
0.26800 0.11181
0.27000 0.01310
0.27200 -0.03067
0.27400 -0.03464
0.27600 -0.09844
0.27800 -0.01431
0.28000 -0.04707
0.28200 0.04258
0.28400 -0.07031
0.28600 0.02830
0.28800 -0.02806
0.29000 0.00252
0.29200 0.07604
0.29400 -0.00346
0.29600 -0.02832
0.29800 -0.02757
0.30000 0.04782
0.30200 -0.03868
0.30400 0.07271
0.30600 0.01261
0.30800 -0.01488
0.31000 0.02430
0.31200 -0.02129
0.31400 0.08132
0.31600 0.13390
0.31800 -0.12337
0.32000 -0.09362
0.32200 0.03234
0.32400 0.02907
0.32600 -0.02120
0.32800 0.01856
0.33000 -0.03029
0.33200 0.02049
0.33400 0.07369
0.33600 0.14214
0.33800 -0.01891
0.34000 -0.05265
0.34200 0.12254
0.34400 0.12080
0.34600 0.01136
0.34800 0.11228
0.35000 0.07483
0.35200 0.01161
0.35400 0.13169
0.35600 0.05558
0.35800 -0.16284
0.36000 0.05626
0.36200 0.06326
0.36400 0.04485
0.36600 -0.10144
0.36800 -0.08928
0.37000 0.06332
0.37200 -0.11033
0.37400 -0.00520
0.37600 -0.06039
0.37800 -0.07084
0.38000 -0.01197
0.38200 0.06864
0.38400 0.06140
0.38600 0.03030
0.38800 0.03943
0.39000 -0.03569
0.39200 -0.06828
0.39400 0.14254
0.39600 0.06753
0.39800 0.05595
0.40000 -0.00834
0.40200 -0.02131
0.40400 -0.04125
0.40600 -0.04288
0.40800 -0.05523
0.41000 0.03070
0.41200 0.04157
0.41400 -0.13303
0.41600 0.00241
0.41800 0.07264
0.42000 0.05835
0.42200 -0.06153
0.42400 -0.01399
0.42600 0.00231
0.42800 -0.12092
0.43000 -0.03216
0.43200 0.03492
0.43400 0.04150
0.43600 -0.03578
0.43800 0.02107
0.44000 0.08862
0.44200 0.02905
0.44400 -0.07025
0.44600 -0.06403
0.44800 0.04027
0.45000 0.04837
0.45200 -0.03458
0.45400 0.06671
0.45600 0.29199
0.45800 0.82588
0.46000 1.31185
0.46200 1.48954
0.46400 1.03830
0.46600 0.55410
0.46800 0.11508
0.47000 0.05469
0.47200 -0.00265
0.47400 0.04922
0.47600 0.05481
0.47800 -0.05726
0.48000 0.07597
0.48200 -0.06904
0.48400 -0.01434
0.48600 -0.00639
0.48800 0.05238
0.49000 0.01122
0.49200 0.07818
0.49400 -0.00717
0.49600 -0.03293
0.49800 -0.01362
0.50000 0.09178
0.50200 0.11196
0.50400 0.05866
0.50600 0.04985
0.50800 -0.03328
0.51000 -0.00160
0.51200 -0.11484
0.51400 0.07164
0.51600 -0.03028
0.51800 -0.05455
0.52000 -0.08442
0.52200 -0.02053
0.52400 0.04289
0.52600 -0.02816
0.52800 -0.00115
0.53000 0.01759
0.53200 0.03964
0.53400 -0.02173
0.53600 -0.02057
0.53800 -0.04496
0.54000 -0.06168
0.54200 -0.07228
0.54400 -0.04454
0.54600 -0.02519
0.54800 0.04061
0.55000 -0.07220
0.55200 0.15294
0.55400 -0.05112
0.55600 -0.11655
0.55800 -0.04973
0.56000 -0.04725
0.56200 0.02638
0.56400 0.02476
0.56600 -0.02063
0.56800 -0.06377
0.57000 -0.05966
0.57200 0.00865
0.57400 -0.03329
0.57600 -0.09881
0.57800 0.03782
0.58000 -0.07940
0.58200 -0.02888
0.58400 -0.00270
0.58600 0.11057
0.58800 0.00065
0.59000 -0.04189
0.59200 -0.00095
0.59400 -0.07654
0.59600 -0.01770
0.59800 0.01570
0.60000 -0.00228
0.60200 0.05651
0.60400 0.07296
0.60600 0.02526
0.60800 0.06302
0.61000 0.01814
0.61200 0.02039
0.61400 -0.13491
0.61600 0.05162
0.61800 0.08323
0.62000 0.01019
0.62200 -0.08228
0.62400 -0.02763
0.62600 0.06978
0.62800 0.02779
0.63000 0.00619
0.63200 -0.04836
0.63400 0.08144
0.63600 -0.02351
0.63800 -0.08304
0.64000 -0.04119
0.64200 0.00655
0.64400 0.09190
0.64600 -0.03428
0.64800 0.03112
0.65000 0.01370
0.65200 0.00494
0.65400 -0.08716
0.65600 -0.00395
0.65800 0.01700
0.66000 -0.13891
0.66200 0.01675
0.66400 0.03319
0.66600 0.05389
0.66800 0.01459
0.67000 -0.00487
0.67200 0.06471
0.67400 0.06284
0.67600 -0.06732
0.67800 0.03961
0.68000 0.00523
0.68200 -0.06942
0.68400 -0.02313
0.68600 0.01752
0.68800 -0.01022
0.69000 -0.06234
0.69200 0.01968
0.69400 -0.04569
0.69600 0.05153
0.69800 -0.03803
0.70000 0.03668
0.70200 0.01728
0.70400 -0.02479
0.70600 0.02217
0.70800 0.10629
0.71000 -0.12049
0.71200 -0.05578
0.71400 0.01589
0.71600 0.03670
0.71800 0.02396
0.72000 0.01903
0.72200 -0.06127
0.72400 -0.03191
0.72600 0.08474
0.72800 -0.12633
0.73000 0.02054
0.73200 0.07663
0.73400 0.01898
0.73600 0.00019
0.73800 0.06206
0.74000 0.03056
0.74200 0.09036
0.74400 0.00776
0.74600 -0.08636
0.74800 -0.04222
0.75000 -0.04578
0.75200 0.00790
0.75400 0.04442
0.75600 -0.00016
0.75800 0.03242
0.76000 -0.02214
0.76200 0.02050
0.76400 -0.05581
0.76600 -0.04070
0.76800 0.05525
0.77000 0.00406
0.77200 0.02197
0.77400 0.09862
0.77600 -0.06724
0.77800 -0.02454
0.78000 0.04043
0.78200 0.09659
0.78400 0.13670
0.78600 -0.03310
0.78800 0.02928
0.79000 0.07265
0.79200 -0.04799
0.79400 0.03650
0.79600 0.03365
0.79800 -0.01484
0.80000 -0.04449
0.80200 0.05237
0.80400 -0.04270
0.80600 0.13102
0.80800 -0.04331
0.81000 -0.05142
0.81200 0.19188
0.81400 0.02810
0.81600 0.00161
0.81800 -0.06313
0.82000 -0.04092
0.82200 -0.01131
0.82400 -0.03800
0.82600 0.01802
0.82800 -0.06584
0.83000 -0.06643
0.83200 -0.03756
0.83400 -0.01326
0.83600 -0.10194
0.83800 0.05281
0.84000 -0.05192
0.84200 0.01102
0.84400 0.10144
0.84600 -0.07949
0.84800 0.05668
0.85000 0.03258
0.85200 -0.01910
0.85400 0.08758
0.85600 -0.04154
0.85800 -0.04762
0.86000 -0.02993
0.86200 0.03932
0.86400 0.05291
0.86600 0.16959
0.86800 -0.05041
0.87000 -0.02610
0.87200 0.03961
0.87400 0.05890
0.87600 -0.05629
0.87800 -0.09645
0.88000 0.01362
0.88200 0.04564
0.88400 0.14763
0.88600 0.02756
0.88800 0.05511
0.89000 0.01900
0.89200 -0.03996
0.89400 -0.01535
0.89600 -0.04644
0.89800 -0.05872
0.90000 0.08675
0.90200 -0.00104
0.90400 -0.07130
0.90600 0.00988
0.90800 0.02511
0.91000 -0.08280
0.91200 -0.03397
0.91400 0.07741
0.91600 0.03093
0.91800 0.02640
0.92000 -0.04459
0.92200 0.00634
0.92400 0.04041
0.92600 0.06226
0.92800 -0.01855
0.93000 -0.02130
0.93200 0.00437
0.93400 -0.00230
0.93600 0.03827
0.93800 0.09923
0.94000 -0.04176
0.94200 0.03269
0.94400 -0.03243
0.94600 -0.02926
0.94800 0.00771
0.95000 0.01002
0.95200 -0.04363
0.95400 -0.08684
0.95600 0.00283
0.95800 0.03678
0.96000 -0.00890
0.96200 -0.03888
0.96400 0.01734
0.96600 0.02823
0.96800 -0.07518
0.97000 0.02070
0.97200 0.10611
0.97400 0.12522
0.97600 -0.09754
0.97800 -0.06622
0.98000 -0.06810
0.98200 0.05437
0.98400 0.05538
0.98600 -0.04005
0.98800 0.02693
0.99000 -0.09339
0.99200 -0.04138
0.99400 0.05300
0.99600 -0.08148
0.99800 -0.08311
1.00000 -0.06610
1.00200 -0.00845
1.00400 -0.04753
1.00600 0.03132
1.00800 0.00637
1.01000 -0.06260
1.01200 -0.05005
1.01400 0.06881
1.01600 -0.10540
1.01800 -0.00652
1.02000 -0.03535
1.02200 0.09500
1.02400 0.06576
1.02600 0.11620
1.02800 0.02641
1.03000 0.06695
1.03200 -0.03561
1.03400 0.03643
1.03600 -0.08806
1.03800 0.06955
1.04000 0.10938
1.04200 -0.03795
1.04400 -0.05184
1.04600 0.08558
1.04800 -0.00610
1.05000 -0.03316
1.05200 -0.03264
1.05400 -0.01135
1.05600 0.04199
1.05800 0.08420
1.06000 -0.02012
1.06200 0.06381
1.06400 0.02200
1.06600 0.05144
1.06800 -0.03936
1.07000 0.03945
1.07200 0.02073
1.07400 0.02643
1.07600 -0.02698
1.07800 -0.03904
1.08000 -0.04331
1.08200 -0.04549
1.08400 -0.04724
1.08600 0.09877
1.08800 0.02414
1.09000 -0.03342
1.09200 -0.06524
1.09400 -0.02247
1.09600 -0.04301
1.09800 0.01821
1.10000 0.01305
1.10200 -0.06835
1.10400 0.00274
1.10600 0.06148
1.10800 0.06893
1.11000 -0.02682
1.11200 0.01017
1.11400 -0.06318
1.11600 -0.00130
1.11800 -0.08392
1.12000 -0.03717
1.12200 0.05515
1.12400 -0.06294
1.12600 0.03546
1.12800 -0.08552
1.13000 -0.01697
1.13200 -0.05827
1.13400 0.07154
1.13600 0.07954
1.13800 0.04192
1.14000 0.10964
1.14200 -0.02238
1.14400 0.06459
1.14600 -0.01301
1.14800 -0.02204
1.15000 -0.00906
1.15200 -0.04344
1.15400 0.05253
1.15600 0.16924
1.15800 0.04173
1.16000 -0.05287
1.16200 0.06268
1.16400 0.06462
1.16600 -0.01260
1.16800 0.10658
1.17000 -0.06683
1.17200 0.00598
1.17400 -0.08573
1.17600 -0.03885
1.17800 0.01747
1.18000 0.07776
1.18200 0.06420
1.18400 0.06952
1.18600 -0.05888
1.18800 -0.00277
1.19000 -0.06928
1.19200 -0.06023
1.19400 0.02982
1.19600 0.08112
1.19800 -0.01017
1.20000 0.04405
1.20200 -0.11147
1.20400 0.09024
1.20600 -0.14167
1.20800 -0.08805
1.21000 0.08703
1.21200 -0.00593
1.21400 -0.03742
1.21600 0.02414
1.21800 0.08778
1.22000 -0.04339
1.22200 -0.09216
1.22400 -0.01052
1.22600 -0.02140
1.22800 -0.02891
1.23000 0.02077
1.23200 0.01492
1.23400 -0.00923
1.23600 -0.01275
1.23800 0.04961
1.24000 -0.07115
1.24200 -0.01684
1.24400 -0.01703
1.24600 0.02125
1.24800 0.08789
1.25000 -0.05450
1.25200 -0.00077
1.25400 -0.00327
1.25600 0.00521
1.25800 -0.08617
1.26000 0.02688
1.26200 -0.04379
1.26400 0.01610
1.26600 0.03472
1.26800 -0.06190
1.27000 -0.03556
1.27200 -0.11883
1.27400 0.00687
1.27600 -0.02256
1.27800 0.03930
1.28000 -0.03835
1.28200 0.02421
1.28400 0.07019
1.28600 -0.02740
1.28800 -0.04789
1.29000 -0.00531
1.29200 0.03492
1.29400 -0.04947
1.29600 0.12177
1.29800 0.13371
1.30000 0.02000
1.30200 -0.09844
1.30400 0.15487
1.30600 0.00425
1.30800 -0.03274
1.31000 -0.02724
1.31200 -0.01874
1.31400 -0.03284
1.31600 0.00346
1.31800 -0.01451
1.32000 0.02869
1.32200 0.00306
1.32400 0.04564
1.32600 -0.02935
1.32800 -0.11138
1.33000 -0.01813
1.33200 0.10574
1.33400 0.10285
1.33600 0.05213
1.33800 -0.03951
1.34000 -0.04294
1.34200 -0.06190
1.34400 0.02823
1.34600 -0.03528
1.34800 0.04516
1.35000 -0.03686
1.35200 -0.00132
1.35400 0.05732
1.35600 0.00691
1.35800 -0.02875
1.36000 0.00596
1.36200 -0.01511
1.36400 0.09783
1.36600 0.10129
1.36800 -0.01955
1.37000 -0.07915
1.37200 0.03411
1.37400 0.03009
1.37600 -0.01224
1.37800 0.16218
1.38000 0.42308
1.38200 1.07241
1.38400 1.34285
1.38600 1.29451
1.38800 0.78704
1.39000 0.27118
1.39200 0.12670
1.39400 0.10339
1.39600 -0.10267
1.39800 0.09604
1.40000 0.07525
1.40200 -0.10434
1.40400 0.05145
1.40600 0.03848
1.40800 0.03480
1.41000 -0.07974
1.41200 0.01682
1.41400 -0.07788
1.41600 0.04514
1.41800 0.13014
1.42000 -0.16624
1.42200 0.02229
1.42400 -0.01876
1.42600 -0.00207
1.42800 0.03347
1.43000 0.01484
1.43200 0.05094
1.43400 0.07167
1.43600 0.01576
1.43800 -0.01673
1.44000 -0.10397
1.44200 -0.03971
1.44400 0.10842
1.44600 0.01576
1.44800 -0.04170
1.45000 -0.02407
1.45200 0.02335
1.45400 -0.10314
1.45600 -0.06930
1.45800 -0.00789
1.46000 -0.12515
1.46200 0.05353
1.46400 0.11351
1.46600 -0.11500
1.46800 -0.00946
1.47000 0.03434
1.47200 0.02103
1.47400 0.01322
1.47600 0.05373
1.47800 0.02329
1.48000 -0.06493
1.48200 0.01015
1.48400 0.02242
1.48600 0.08436
1.48800 0.03671
1.49000 -0.00278
1.49200 0.01507
1.49400 -0.05021
1.49600 -0.01835
1.49800 0.05606
1.50000 -0.13224
1.50200 -0.05445
1.50400 0.06799
1.50600 0.04583
1.50800 -0.02519
1.51000 -0.00421
1.51200 0.00298
1.51400 0.07447
1.51600 0.05607
1.51800 0.04463
1.52000 -0.01095
1.52200 0.06183
1.52400 0.00256
1.52600 0.00340
1.52800 0.00804
1.53000 0.01349
1.53200 -0.08183
1.53400 -0.09719
1.53600 0.01829
1.53800 0.03526
1.54000 0.00887
1.54200 0.10394
1.54400 -0.00240
1.54600 0.01527
1.54800 0.08259
1.55000 -0.07758
1.55200 -0.03435
1.55400 0.07899
1.55600 0.03649
1.55800 0.03622
1.56000 -0.08336
1.56200 0.01120
1.56400 0.02262
1.56600 0.07226
1.56800 0.03957
1.57000 0.00994
1.57200 0.01338
1.57400 0.00755
1.57600 0.13747
1.57800 0.08349
1.58000 -0.12294
1.58200 -0.18037
1.58400 0.04034
1.58600 -0.08353
1.58800 -0.08939
1.59000 0.02250
1.59200 0.03405
1.59400 0.00958
1.59600 -0.06559
1.59800 0.02342
1.60000 0.02754
1.60200 0.02620
1.60400 0.12005
1.60600 0.06415
1.60800 -0.05220
1.61000 0.03210
1.61200 -0.04931
1.61400 -0.01256
1.61600 -0.00747
1.61800 -0.03554
1.62000 -0.15711
1.62200 0.05581
1.62400 0.09444
1.62600 0.03625
1.62800 -0.07770
1.63000 -0.01740
1.63200 -0.07508
1.63400 -0.05989
1.63600 -0.04760
1.63800 0.05858
1.64000 0.04260
1.64200 -0.04098
1.64400 -0.17068
1.64600 -0.10234
1.64800 0.06917
1.65000 0.08803
1.65200 -0.00056
1.65400 0.02835
1.65600 0.00583
1.65800 0.08271
1.66000 -0.05955
1.66200 0.00129
1.66400 -0.07965
1.66600 -0.07091
1.66800 0.00069
1.67000 0.01969
1.67200 -0.04447
1.67400 0.04874
1.67600 0.03790
1.67800 0.00686
1.68000 -0.07687
1.68200 -0.02563
1.68400 -0.09605
1.68600 -0.01902
1.68800 0.04474
1.69000 -0.11313
1.69200 -0.02754
1.69400 -0.00628
1.69600 -0.02265
1.69800 -0.05919
1.70000 0.05371
1.70200 0.04916
1.70400 0.08652
1.70600 -0.01771
1.70800 0.05613
1.71000 0.06283
1.71200 -0.08019
1.71400 -0.11338
1.71600 -0.03038
1.71800 0.05174
1.72000 0.00622
1.72200 -0.07456
1.72400 -0.07026
1.72600 -0.08772
1.72800 0.02235
1.73000 -0.07373
1.73200 -0.04795
1.73400 -0.02995
1.73600 0.14590
1.73800 0.05355
1.74000 0.00333
1.74200 -0.01174
1.74400 -0.10051
1.74600 0.03083
1.74800 -0.06760
1.75000 -0.05791
1.75200 0.00260
1.75400 0.00850
1.75600 -0.00578
1.75800 -0.05492
1.76000 -0.02382
1.76200 -0.04981
1.76400 -0.06787
1.76600 -0.07268
1.76800 -0.01841
1.77000 -0.07916
1.77200 0.03145
1.77400 0.08323
1.77600 0.05030
1.77800 -0.10026
1.78000 0.00440
1.78200 0.14928
1.78400 0.10360
1.78600 -0.01157
1.78800 -0.00610
1.79000 0.01807
1.79200 0.15476
1.79400 -0.02791
1.79600 -0.06981
1.79800 0.06708
1.80000 0.03970
1.80200 -0.00286
1.80400 -0.00662
1.80600 0.04378
1.80800 0.00441
1.81000 0.01995
1.81200 0.03738
1.81400 0.02162
1.81600 0.05454
1.81800 0.09718
1.82000 0.03780
1.82200 0.00617
1.82400 -0.00186
1.82600 0.10407
1.82800 0.03736
1.83000 0.01259
1.83200 -0.05566
1.83400 -0.05080
1.83600 0.04083
1.83800 -0.07022
1.84000 0.00133
1.84200 0.02413
1.84400 -0.02053
1.84600 -0.06371
1.84800 0.05124
1.85000 -0.03884
1.85200 0.03805
1.85400 -0.07917
1.85600 -0.01098
1.85800 0.04524
1.86000 -0.06790
1.86200 -0.16919
1.86400 0.16378
1.86600 -0.01353
1.86800 0.00447
1.87000 -0.14360
1.87200 -0.01399
1.87400 -0.01982
1.87600 0.02365
1.87800 -0.07095
1.88000 -0.05021
1.88200 0.05492
1.88400 -0.02728
1.88600 -0.04444
1.88800 -0.07238
1.89000 0.01467
1.89200 0.06226
1.89400 0.01999
1.89600 -0.04277
1.89800 -0.00955
1.90000 0.03769
1.90200 -0.03625
1.90400 -0.00087
1.90600 0.00553
1.90800 0.03732
1.91000 -0.01337
1.91200 0.00152
1.91400 0.08473
1.91600 0.00561
1.91800 -0.03211
1.92000 0.06560
1.92200 0.00807
1.92400 -0.06254
1.92600 0.07193
1.92800 -0.06315
1.93000 -0.04002
1.93200 0.14265
1.93400 -0.02952
1.93600 -0.02089
1.93800 -0.01501
1.94000 -0.03752
1.94200 -0.01199
1.94400 -0.05578
1.94600 -0.00880
1.94800 -0.06534
1.95000 0.08041
1.95200 0.02565
1.95400 -0.03171
1.95600 -0.02064
1.95800 -0.02851
1.96000 -0.08441
1.96200 -0.01951
1.96400 0.07947
1.96600 0.08828
1.96800 0.11021
1.97000 0.10184
1.97200 -0.09970
1.97400 -0.04536
1.97600 0.06076
1.97800 -0.10122
1.98000 0.02968
1.98200 -0.00051
1.98400 -0.00151
1.98600 -0.00942
1.98800 0.00554
1.99000 0.06993
1.99200 0.00261
1.99400 -0.05948
1.99600 -0.07091
1.99800 -0.01071
2.00000 -0.03627
2.00200 0.10222
2.00400 -0.06059
2.00600 -0.00131
2.00800 0.05513
2.01000 0.05748
2.01200 -0.01949
2.01400 0.08978
2.01600 -0.10504
2.01800 0.05112
2.02000 0.09408
2.02200 0.03326
2.02400 -0.04128
2.02600 -0.05985
2.02800 -0.10470
2.03000 0.00725
2.03200 -0.02908
2.03400 0.07160
2.03600 -0.11878
2.03800 0.02389
2.04000 -0.08289
2.04200 0.00825
2.04400 -0.00433
2.04600 -0.00191
2.04800 -0.03001
2.05000 -0.06649
2.05200 0.01139
2.05400 0.03868
2.05600 0.02147
2.05800 -0.06179
2.06000 0.07934
2.06200 0.07859
2.06400 0.04371
2.06600 0.03973
2.06800 0.06320
2.07000 -0.07834
2.07200 0.03247
2.07400 -0.08244
2.07600 0.10570
2.07800 -0.05951
2.08000 -0.03165
2.08200 0.08912
2.08400 -0.06660
2.08600 0.10711
2.08800 0.10954
2.09000 0.00133
2.09200 0.04717
2.09400 -0.04236
2.09600 0.03334
2.09800 0.00702
2.10000 -0.08914
2.10200 0.11072
2.10400 -0.16457
2.10600 0.08496
2.10800 0.01443
2.11000 -0.04714
2.11200 0.01360
2.11400 0.11084
2.11600 -0.02174
2.11800 0.13912
2.12000 0.08845
2.12200 0.00743
2.12400 -0.03781
2.12600 0.02990
2.12800 -0.03037
2.13000 -0.03655
2.13200 0.00208
2.13400 0.02930
2.13600 0.09633
2.13800 -0.03947
2.14000 0.10069
2.14200 -0.13009
2.14400 -0.02838
2.14600 -0.00884
2.14800 0.12706
2.15000 0.07435
2.15200 -0.04864
2.15400 -0.05994
2.15600 -0.08156
2.15800 0.00943
2.16000 -0.07544
2.16200 -0.03082
2.16400 0.04153
2.16600 -0.01479
2.16800 0.04139
2.17000 0.03105
2.17200 -0.00455
2.17400 0.08781
2.17600 -0.05845
2.17800 -0.04925
2.18000 -0.00744
2.18200 0.00071
2.18400 -0.05123
2.18600 -0.00659
2.18800 0.01678
2.19000 0.05854
2.19200 0.10982
2.19400 0.09791
2.19600 0.07014
2.19800 0.02918
2.20000 0.01960
2.20200 0.02805
2.20400 -0.05859
2.20600 -0.07104
2.20800 0.16676
2.21000 -0.00234
2.21200 -0.07459
2.21400 0.01967
2.21600 0.00100
2.21800 0.08865
2.22000 -0.11405
2.22200 0.05928
2.22400 0.08370
2.22600 0.00222
2.22800 -0.03993
2.23000 -0.06511
2.23200 0.02434
2.23400 -0.01219
2.23600 0.02428
2.23800 0.05926
2.24000 0.00950
2.24200 -0.00122
2.24400 -0.00448
2.24600 0.06724
2.24800 -0.01130
2.25000 -0.10899
2.25200 0.04088
2.25400 0.00948
2.25600 0.05142
2.25800 0.05110
2.26000 -0.10129
2.26200 0.04391
2.26400 -0.00425
2.26600 0.04599
2.26800 -0.01507
2.27000 0.01750
2.27200 0.09463
2.27400 0.02120
2.27600 -0.00947
2.27800 -0.11521
2.28000 0.01973
2.28200 0.04581
2.28400 0.00199
2.28600 -0.00121
2.28800 0.08494
2.29000 -0.01628
2.29200 0.01664
2.29400 -0.12824
2.29600 0.02416
2.29800 -0.03869
2.30000 0.08786
2.30200 0.13100
2.30400 0.74384
2.30600 1.25979
2.30800 1.53180
2.31000 1.20221
2.31200 0.54367
2.31400 0.07993
2.31600 0.08353
2.31800 0.01397
2.32000 -0.03830
2.32200 -0.03076
2.32400 -0.05875
2.32600 -0.02937
2.32800 0.08508
2.33000 0.04996
2.33200 -0.02547
2.33400 0.02865
2.33600 -0.08679
2.33800 -0.01430
2.34000 -0.02546
2.34200 0.01900
2.34400 -0.00041
2.34600 -0.03132
2.34800 0.01365
2.35000 0.03187
2.35200 -0.02273
2.35400 0.04528
2.35600 -0.04035
2.35800 0.05135
2.36000 -0.03549
2.36200 -0.08417
2.36400 -0.11058
2.36600 -0.05094
2.36800 0.05704
2.37000 -0.04315
2.37200 -0.01774
2.37400 -0.00899
2.37600 -0.02393
2.37800 -0.06509
2.38000 0.04203
2.38200 0.00533
2.38400 -0.01642
2.38600 -0.13102
2.38800 -0.04942
2.39000 0.00554
2.39200 0.00765
2.39400 -0.00848
2.39600 -0.01325
2.39800 -0.03052
2.40000 -0.05098
2.40200 0.09446
2.40400 -0.11685
2.40600 -0.00206
2.40800 -0.02961
2.41000 -0.04171
2.41200 -0.04844
2.41400 0.01285
2.41600 0.08510
2.41800 0.00690
2.42000 0.02394
2.42200 0.07356
2.42400 0.00215
2.42600 -0.06774
2.42800 -0.06964
2.43000 0.06466
2.43200 0.02661
2.43400 0.05441
2.43600 -0.00431
2.43800 -0.02249
2.44000 0.04316
2.44200 -0.10921
2.44400 0.07391
2.44600 0.03649
2.44800 -0.09174
2.45000 -0.00889
2.45200 -0.05635
2.45400 0.05085
2.45600 0.05354
2.45800 -0.00979
2.46000 -0.08470
2.46200 0.01006
2.46400 -0.01852
2.46600 0.02712
2.46800 0.02869
2.47000 -0.01230
2.47200 0.00913
2.47400 -0.03359
2.47600 0.00818
2.47800 -0.09020
2.48000 -0.06679
2.48200 -0.06395
2.48400 0.08729
2.48600 -0.08284
2.48800 0.07563
2.49000 0.04999
2.49200 0.00670
2.49400 -0.00962
2.49600 -0.05272
2.49800 -0.07055
2.50000 -0.07268
2.50200 -0.03707
2.50400 0.06454
2.50600 0.00720
2.50800 -0.00255
2.51000 0.07232
2.51200 0.00504
2.51400 0.01263
2.51600 0.10397
2.51800 0.04063
2.52000 0.03834
2.52200 -0.02046
2.52400 -0.01530
2.52600 -0.10909
2.52800 -0.01919
2.53000 -0.02561
2.53200 0.02821
2.53400 0.03316
2.53600 -0.00676
2.53800 -0.01512
2.54000 -0.06608
2.54200 -0.04383
2.54400 -0.00798
2.54600 -0.02533
2.54800 -0.01943
2.55000 0.01501
2.55200 -0.04344
2.55400 0.00134
2.55600 -0.04325
2.55800 0.01256
2.56000 -0.15380
2.56200 -0.09619
2.56400 0.02127
2.56600 -0.05726
2.56800 0.07647
2.57000 -0.04410
2.57200 -0.03943
2.57400 0.02580
2.57600 0.08104
2.57800 -0.05185
2.58000 0.00963
2.58200 0.05675
2.58400 -0.08194
2.58600 0.05977
2.58800 -0.06936
2.59000 -0.11889
2.59200 -0.03021
2.59400 0.03080
2.59600 0.04656
2.59800 0.02639
2.60000 -0.02794
2.60200 -0.01368
2.60400 0.05514
2.60600 0.06992
2.60800 0.04260
2.61000 0.05532
2.61200 -0.03224
2.61400 -0.03831
2.61600 0.01914
2.61800 -0.04319
2.62000 0.04876
2.62200 -0.00184
2.62400 -0.02801
2.62600 0.05221
2.62800 0.05369
2.63000 -0.00224
2.63200 -0.08737
2.63400 -0.03687
2.63600 0.04706
2.63800 0.06143
2.64000 -0.01163
2.64200 -0.10615
2.64400 -0.09141
2.64600 0.04142
2.64800 -0.06686
2.65000 0.01317
2.65200 -0.01682
2.65400 -0.09780
2.65600 0.01387
2.65800 0.04697
2.66000 0.06587
2.66200 -0.07881
2.66400 0.04556
2.66600 0.00276
2.66800 -0.00845
2.67000 0.15418
2.67200 0.00918
2.67400 -0.02414
2.67600 0.01451
2.67800 -0.00715
2.68000 -0.05174
2.68200 0.02189
2.68400 -0.02864
2.68600 -0.01040
2.68800 0.07514
2.69000 -0.04483
2.69200 -0.05607
2.69400 -0.04237
2.69600 0.02231
2.69800 -0.00527
2.70000 0.15039
2.70200 -0.07698
2.70400 -0.06756
2.70600 0.03434
2.70800 -0.02445
2.71000 0.00576
2.71200 0.05666
2.71400 -0.01096
2.71600 -0.03502
2.71800 0.02186
2.72000 -0.08477
2.72200 0.00050
2.72400 0.08431
2.72600 -0.00381
2.72800 0.04414
2.73000 -0.01853
2.73200 -0.02251
2.73400 0.01557
2.73600 0.02503
2.73800 0.16125
2.74000 -0.09836
2.74200 0.01657
2.74400 -0.00500
2.74600 -0.04682
2.74800 0.03110
2.75000 -0.01956
2.75200 -0.14019
2.75400 -0.04288
2.75600 -0.04555
2.75800 0.04519
2.76000 0.04838
2.76200 0.01708
2.76400 -0.03692
2.76600 -0.04297
2.76800 -0.05923
2.77000 0.09513
2.77200 0.02037
2.77400 -0.07633
2.77600 0.03594
2.77800 -0.02228
2.78000 0.07997
2.78200 -0.00547
2.78400 -0.09916
2.78600 -0.10000
2.78800 0.12322
2.79000 0.02658
2.79200 0.08681
2.79400 0.07858
2.79600 -0.06668
2.79800 -0.02028
2.80000 -0.14006
2.80200 -0.07557
2.80400 0.04326
2.80600 0.00580
2.80800 -0.02792
2.81000 0.06279
2.81200 -0.00358
2.81400 0.01505
2.81600 -0.04939
2.81800 -0.04321
2.82000 -0.01348
2.82200 0.03430
2.82400 -0.04698
2.82600 -0.04513
2.82800 -0.00639
2.83000 -0.04249
2.83200 0.06780
2.83400 0.03590
2.83600 0.04472
2.83800 -0.01626
2.84000 0.02449
2.84200 0.01713
2.84400 0.07145
2.84600 -0.01625
2.84800 -0.07048
2.85000 0.06442
2.85200 -0.02579
2.85400 0.08704
2.85600 -0.02471
2.85800 -0.02397
2.86000 0.02522
2.86200 0.04323
2.86400 -0.03632
2.86600 0.00314
2.86800 -0.02349
2.87000 0.02958
2.87200 0.06325
2.87400 0.13068
2.87600 -0.01013
2.87800 -0.07901
2.88000 0.01223
2.88200 0.03933
2.88400 -0.04706
2.88600 0.02891
2.88800 0.03033
2.89000 0.10724
2.89200 -0.04658
2.89400 0.03310
2.89600 -0.03812
2.89800 0.00149
2.90000 -0.01870
2.90200 0.02541
2.90400 -0.02336
2.90600 0.00843
2.90800 0.01121
2.91000 -0.12383
2.91200 -0.05193
2.91400 -0.01658
2.91600 -0.04807
2.91800 0.02486
2.92000 0.02196
2.92200 -0.05982
2.92400 0.01814
2.92600 -0.04870
2.92800 -0.04922
2.93000 0.02552
2.93200 -0.03198
2.93400 0.00340
2.93600 0.03355
2.93800 -0.00975
2.94000 0.08082
2.94200 0.00895
2.94400 0.02678
2.94600 0.00065
2.94800 -0.13469
2.95000 0.02974
2.95200 -0.07411
2.95400 0.03365
2.95600 0.04188
2.95800 -0.00085
2.96000 0.00236
2.96200 -0.00011
2.96400 0.01136
2.96600 0.03689
2.96800 -0.00874
2.97000 -0.07435
2.97200 0.03820
2.97400 -0.05581
2.97600 -0.00972
2.97800 -0.03216
2.98000 0.04215
2.98200 -0.09471
2.98400 -0.04343
2.98600 -0.03191
2.98800 0.13384
2.99000 -0.05024
2.99200 0.00851
2.99400 -0.02422
2.99600 0.01884
2.99800 -0.08375
3.00000 0.02581
3.00200 0.05361
3.00400 0.05737
3.00600 0.03306
3.00800 -0.06110
3.01000 0.01254
3.01200 -0.09910
3.01400 0.03664
3.01600 0.03041
3.01800 -0.03114
3.02000 0.01355
3.02200 -0.12966
3.02400 -0.05421
3.02600 -0.01872
3.02800 -0.03510
3.03000 0.16691
3.03200 -0.00267
3.03400 0.07784
3.03600 0.01503
3.03800 0.04328
3.04000 0.10487
3.04200 -0.06594
3.04400 -0.04573
3.04600 -0.02086
3.04800 0.15329
3.05000 0.00891
3.05200 0.02949
3.05400 -0.03096
3.05600 0.08381
3.05800 -0.00679
3.06000 -0.03642
3.06200 -0.03961
3.06400 0.01032
3.06600 0.02143
3.06800 -0.04925
3.07000 -0.09634
3.07200 0.00024
3.07400 -0.04653
3.07600 -0.05109
3.07800 0.02402
3.08000 -0.10204
3.08200 -0.08582
3.08400 0.12662
3.08600 0.01284
3.08800 -0.00783
3.09000 0.06796
3.09200 -0.07275
3.09400 -0.02875
3.09600 -0.04982
3.09800 -0.00820
3.10000 -0.09715
3.10200 0.04991
3.10400 0.07258
3.10600 0.02151
3.10800 0.03922
3.11000 -0.04645
3.11200 0.08751
3.11400 0.08813
3.11600 -0.05890
3.11800 -0.09443
3.12000 0.08052
3.12200 0.02719
3.12400 -0.04761
3.12600 0.00008
3.12800 -0.01116
3.13000 -0.03442
3.13200 -0.05340
3.13400 -0.00644
3.13600 0.05194
3.13800 -0.07240
3.14000 -0.03585
3.14200 -0.02449
3.14400 -0.08368
3.14600 0.08851
3.14800 -0.08817
3.15000 0.04808
3.15200 0.08516
3.15400 -0.03356
3.15600 0.16624
3.15800 0.05564
3.16000 -0.02363
3.16200 -0.02983
3.16400 -0.04924
3.16600 -0.11681
3.16800 -0.04224
3.17000 0.04797
3.17200 -0.02966
3.17400 -0.02948
3.17600 0.08579
3.17800 0.00107
3.18000 -0.02256
3.18200 -0.09322
3.18400 -0.06019
3.18600 -0.04536
3.18800 0.04833
3.19000 -0.06661
3.19200 -0.00096
3.19400 -0.04439
3.19600 -0.03544
3.19800 -0.01550
3.20000 0.03194
3.20200 -0.07445
3.20400 -0.07446
3.20600 0.02297
3.20800 0.06114
3.21000 0.04453
3.21200 -0.02753
3.21400 0.02180
3.21600 0.01268
3.21800 0.04038
3.22000 -0.05112
3.22200 0.06724
3.22400 0.12981
3.22600 0.48612
3.22800 1.08903
3.23000 1.36678
3.23200 1.36366
3.23400 0.82983
3.23600 0.31679
3.23800 0.07550
3.24000 -0.02877
3.24200 0.08218
3.24400 -0.06959
3.24600 -0.10890
3.24800 -0.05463
3.25000 0.05907
3.25200 0.07392
3.25400 -0.06995
3.25600 0.01519
3.25800 -0.09015
3.26000 -0.06104
3.26200 -0.07534
3.26400 -0.02365
3.26600 0.12723
3.26800 0.00510
3.27000 -0.00527
3.27200 0.05951
3.27400 -0.05569
3.27600 0.00151
3.27800 0.02207
3.28000 0.04028
3.28200 0.01610
3.28400 -0.06914
3.28600 0.06274
3.28800 0.03662
3.29000 -0.08193
3.29200 -0.02213
3.29400 -0.10756
3.29600 0.09753
3.29800 0.04929
3.30000 -0.17202
3.30200 -0.08507
3.30400 -0.04649
3.30600 0.02705
3.30800 0.04364
3.31000 0.11780
3.31200 -0.05576
3.31400 0.09442
3.31600 -0.06170
3.31800 -0.07579
3.32000 -0.00750
3.32200 -0.08016
3.32400 0.00526
3.32600 -0.06446
3.32800 -0.05086
3.33000 -0.03630
3.33200 -0.01203
3.33400 0.00809
3.33600 0.09088
3.33800 -0.03170
3.34000 0.10313
3.34200 -0.02624
3.34400 -0.04882
3.34600 0.03270
3.34800 0.11867
3.35000 0.07105
3.35200 0.00608
3.35400 0.03557
3.35600 -0.03504
3.35800 -0.04528
3.36000 -0.03367
3.36200 0.03051
3.36400 0.08951
3.36600 0.09533
3.36800 0.07824
3.37000 0.01700
3.37200 -0.05822
3.37400 0.02935
3.37600 0.02539
3.37800 -0.05382
3.38000 0.10599
3.38200 -0.03612
3.38400 0.02397
3.38600 0.03505
3.38800 0.00667
3.39000 0.01839
3.39200 -0.06153
3.39400 0.09481
3.39600 0.07244
3.39800 -0.05809
3.40000 -0.00845
3.40200 -0.10111
3.40400 -0.03991
3.40600 -0.05078
3.40800 -0.04123
3.41000 -0.04631
3.41200 -0.01751
3.41400 -0.01056
3.41600 -0.04825
3.41800 0.00189
3.42000 -0.02463
3.42200 0.10311
3.42400 0.04444
3.42600 -0.01582
3.42800 -0.04237
3.43000 0.13456
3.43200 0.07186
3.43400 0.00026
3.43600 -0.04469
3.43800 -0.06782
3.44000 0.03216
3.44200 -0.00317
3.44400 0.05108
3.44600 0.05848
3.44800 0.01894
3.45000 0.06830
3.45200 -0.06280
3.45400 -0.02220
3.45600 -0.11206
3.45800 -0.06318
3.46000 0.05937
3.46200 0.12468
3.46400 0.04242
3.46600 0.04972
3.46800 -0.01939
3.47000 -0.02396
3.47200 -0.11870
3.47400 -0.12598
3.47600 -0.00753
3.47800 0.10103
3.48000 -0.03207
3.48200 -0.05913
3.48400 0.04451
3.48600 -0.06541
3.48800 -0.00579
3.49000 -0.07273
3.49200 0.02455
3.49400 0.05076
3.49600 0.06580
3.49800 0.06629
3.50000 0.00947
3.50200 -0.00646
3.50400 -0.05058
3.50600 -0.01393
3.50800 -0.06693
3.51000 -0.01455
3.51200 -0.05724
3.51400 -0.05420
3.51600 -0.02056
3.51800 0.06087
3.52000 0.02051
3.52200 0.01087
3.52400 -0.05018
3.52600 0.00484
3.52800 0.05598
3.53000 0.02262
3.53200 0.02142
3.53400 -0.04847
3.53600 0.05203
3.53800 -0.02515
3.54000 -0.01654
3.54200 -0.00605
3.54400 0.06109
3.54600 0.04134
3.54800 -0.00500
3.55000 -0.01077
3.55200 -0.07001
3.55400 -0.01588
3.55600 0.00990
3.55800 0.01383
3.56000 0.02236
3.56200 -0.03917
3.56400 0.04423
3.56600 0.14902
3.56800 0.03879
3.57000 0.03471
3.57200 0.12919
3.57400 -0.07375
3.57600 0.02666
3.57800 0.03392
3.58000 -0.01856
3.58200 -0.08909
3.58400 -0.02522
3.58600 0.07471
3.58800 0.00187
3.59000 -0.03802
3.59200 0.07126
3.59400 -0.07784
3.59600 0.05764
3.59800 -0.04357
3.60000 0.00278
3.60200 0.00616
3.60400 0.04830
3.60600 0.00097
3.60800 -0.09297
3.61000 -0.03011
3.61200 0.03300
3.61400 -0.00595
3.61600 -0.00604
3.61800 -0.03435
3.62000 0.06579
3.62200 -0.06031
3.62400 0.02885
3.62600 -0.07657
3.62800 0.03462
3.63000 0.00962
3.63200 -0.03414
3.63400 -0.07065
3.63600 0.01758
3.63800 -0.00749
3.64000 -0.05176
3.64200 -0.09123
3.64400 -0.01702
3.64600 -0.05275
3.64800 0.04332
3.65000 -0.01172
3.65200 -0.03901
3.65400 0.13713
3.65600 0.09593
3.65800 -0.04698
3.66000 -0.01216
3.66200 -0.02139
3.66400 0.03019
3.66600 -0.02755
3.66800 0.08066
3.67000 -0.10118
3.67200 -0.00834
3.67400 -0.03193
3.67600 0.03826
3.67800 0.01965
3.68000 0.08300
3.68200 0.06374
3.68400 -0.04039
3.68600 -0.03874
3.68800 -0.00606
3.69000 0.12271
3.69200 0.15817
3.69400 -0.06737
3.69600 -0.01478
3.69800 0.00401
3.70000 0.00331
3.70200 0.11443
3.70400 0.02392
3.70600 0.08043
3.70800 -0.11289
3.71000 0.00801
3.71200 0.03305
3.71400 0.06722
3.71600 -0.03869
3.71800 -0.05265
3.72000 -0.06187
3.72200 -0.00192
3.72400 0.10291
3.72600 -0.06372
3.72800 -0.09286
3.73000 0.05601
3.73200 0.07574
3.73400 -0.08688
3.73600 0.10301
3.73800 0.09375
3.74000 -0.04079
3.74200 -0.09739
3.74400 0.06384
3.74600 -0.06783
3.74800 -0.01003
3.75000 -0.13334
3.75200 -0.09671
3.75400 -0.05318
3.75600 -0.06497
3.75800 0.00489
3.76000 -0.06022
3.76200 -0.01862
3.76400 0.02055
3.76600 -0.03266
3.76800 0.04076
3.77000 -0.03900
3.77200 0.04374
3.77400 -0.01371
3.77600 -0.06449
3.77800 -0.03942
3.78000 -0.01922
3.78200 -0.02745
3.78400 -0.08785
3.78600 -0.10855
3.78800 -0.07646
3.79000 -0.09122
3.79200 0.09998
3.79400 0.00738
3.79600 -0.05373
3.79800 -0.00407
3.80000 -0.00089
3.80200 0.06465
3.80400 -0.01559
3.80600 -0.00439
3.80800 0.01494
3.81000 0.03352
3.81200 -0.01439
3.81400 0.02692
3.81600 0.00533
3.81800 0.00642
3.82000 -0.02218
3.82200 -0.10831
3.82400 0.01457
3.82600 -0.00480
3.82800 0.02225
3.83000 -0.00734
3.83200 -0.05160
3.83400 0.00497
3.83600 0.16034
3.83800 0.07087
3.84000 -0.00075
3.84200 0.09245
3.84400 -0.00592
3.84600 -0.05438
3.84800 0.02667
3.85000 0.02855
3.85200 0.07780
3.85400 0.05346
3.85600 -0.13651
3.85800 0.05644
3.86000 -0.11107
3.86200 -0.01128
3.86400 0.00637
3.86600 -0.10849
3.86800 0.06837
3.87000 0.07652
3.87200 -0.02633
3.87400 -0.04784
3.87600 -0.08668
3.87800 0.00779
3.88000 0.02998
3.88200 0.02766
3.88400 -0.02536
3.88600 0.03288
3.88800 -0.01065
3.89000 -0.03130
3.89200 -0.00830
3.89400 0.00951
3.89600 0.08206
3.89800 -0.03233
3.90000 -0.02444
3.90200 0.00167
3.90400 -0.06023
3.90600 -0.10248
3.90800 0.07888
3.91000 -0.10203
3.91200 0.05339
3.91400 -0.01167
3.91600 -0.04080
3.91800 0.00431
3.92000 -0.01917
3.92200 0.02682
3.92400 0.00034
3.92600 0.00161
3.92800 0.02543
3.93000 -0.04109
3.93200 -0.09779
3.93400 0.02792
3.93600 -0.03890
3.93800 -0.15511
3.94000 0.09883
3.94200 -0.03160
3.94400 0.17048
3.94600 -0.02336
3.94800 0.00639
3.95000 -0.03811
3.95200 -0.00925
3.95400 0.02492
3.95600 0.10362
3.95800 0.07442
3.96000 -0.01190
3.96200 0.05898
3.96400 -0.02655
3.96600 0.05268
3.96800 0.00805
3.97000 0.01353
3.97200 -0.11448
3.97400 0.01531
3.97600 0.06604
3.97800 0.07041
3.98000 -0.07657
3.98200 0.04692
3.98400 0.01843
3.98600 -0.02902
3.98800 0.10009
3.99000 -0.01985
3.99200 0.02531
3.99400 0.03234
3.99600 0.01536
3.99800 0.10853
4.00000 0.02790
4.00200 -0.04203
4.00400 -0.01373
4.00600 0.03649
4.00800 -0.02839
4.01000 0.04285
4.01200 0.03447
4.01400 -0.06781
4.01600 -0.04629
4.01800 -0.03938
4.02000 -0.08332
4.02200 -0.12693
4.02400 -0.02073
4.02600 -0.03116
4.02800 0.14706
4.03000 0.07999
4.03200 0.01840
4.03400 -0.01233
4.03600 -0.09036
4.03800 -0.04741
4.04000 0.03712
4.04200 0.04891
4.04400 0.08101
4.04600 -0.06206
4.04800 -0.04752
4.05000 -0.01308
4.05200 -0.09448
4.05400 0.01927
4.05600 0.05544
4.05800 0.04313
4.06000 -0.03739
4.06200 -0.09998
4.06400 0.11435
4.06600 0.03793
4.06800 -0.00221
4.07000 0.05225
4.07200 -0.02796
4.07400 0.02501
4.07600 -0.01305
4.07800 0.00611
4.08000 -0.01699
4.08200 0.04414
4.08400 0.16558
4.08600 -0.06863
4.08800 0.10700
4.09000 -0.07166
4.09200 -0.00547
4.09400 0.04839
4.09600 -0.02164
4.09800 -0.05370
4.10000 0.10737
4.10200 -0.00632
4.10400 -0.06107
4.10600 0.06981
4.10800 0.04924
4.11000 -0.06591
4.11200 -0.06175
4.11400 0.14268
4.11600 -0.00768
4.11800 -0.01316
4.12000 0.03622
4.12200 -0.14522
4.12400 0.04819
4.12600 0.05904
4.12800 0.00320
4.13000 -0.00960
4.13200 -0.02051
4.13400 0.07732
4.13600 0.02679
4.13800 0.03903
4.14000 0.09787
4.14200 0.01384
4.14400 0.05488
4.14600 -0.03813
4.14800 0.20009
4.15000 0.69196
4.15200 1.31891
4.15400 1.51375
4.15600 1.18936
4.15800 0.54689
4.16000 0.11018
4.16200 0.09955
4.16400 0.01967
4.16600 -0.01812
4.16800 -0.01087
4.17000 0.06601
4.17200 -0.00145
4.17400 -0.07484
4.17600 -0.00069
4.17800 -0.03665
4.18000 -0.00891
4.18200 -0.04504
4.18400 0.09006
4.18600 0.02188
4.18800 -0.02686
4.19000 -0.05319
4.19200 0.14994
4.19400 0.12775
4.19600 -0.02456
4.19800 -0.10101
4.20000 -0.04447
4.20200 0.05152
4.20400 0.09449
4.20600 0.05633
4.20800 0.00298
4.21000 -0.08329
4.21200 -0.01702
4.21400 0.03345
4.21600 -0.02730
4.21800 -0.08192
4.22000 0.07316
4.22200 -0.05127
4.22400 -0.03997
4.22600 0.08514
4.22800 -0.09961
4.23000 0.03971
4.23200 0.04771
4.23400 0.10854
4.23600 -0.04839
4.23800 0.05567
4.24000 0.01360
4.24200 0.00140
4.24400 -0.02417
4.24600 -0.18446
4.24800 -0.00847
4.25000 -0.05787
4.25200 -0.00751
4.25400 0.00266
4.25600 0.01286
4.25800 -0.02134
4.26000 0.08286
4.26200 -0.06934
4.26400 -0.06016
4.26600 0.15105
4.26800 -0.03874
4.27000 0.03867
4.27200 -0.06992
4.27400 0.06617
4.27600 0.08594
4.27800 0.06009
4.28000 -0.06242
4.28200 0.03032
4.28400 -0.05994
4.28600 0.03229
4.28800 0.08249
4.29000 0.08330
4.29200 0.12767
4.29400 -0.03852
4.29600 0.09734
4.29800 0.05943
4.30000 0.08862
4.30200 -0.10111
4.30400 0.07249
4.30600 0.06398
4.30800 -0.03451
4.31000 0.02431
4.31200 0.05678
4.31400 0.06289
4.31600 -0.00164
4.31800 -0.03998
4.32000 0.05290
4.32200 -0.01328
4.32400 -0.03899
4.32600 -0.04546
4.32800 0.07346
4.33000 -0.09048
4.33200 -0.06944
4.33400 0.09928
4.33600 -0.07800
4.33800 0.06255
4.34000 -0.00330
4.34200 -0.06137
4.34400 -0.16657
4.34600 -0.03344
4.34800 0.09960
4.35000 -0.02388
4.35200 -0.02505
4.35400 0.00459
4.35600 0.03090
4.35800 0.01447
4.36000 -0.00282
4.36200 0.06085
4.36400 -0.05743
4.36600 0.07474
4.36800 -0.07177
4.37000 -0.17870
4.37200 0.13491
4.37400 -0.02060
4.37600 -0.07726
4.37800 -0.01169
4.38000 -0.01943
4.38200 -0.06591
4.38400 -0.05616
4.38600 -0.00456
4.38800 -0.01225
4.39000 -0.09967
4.39200 -0.03297
4.39400 0.02899
4.39600 -0.00562
4.39800 0.01663
4.40000 0.04556
4.40200 -0.02991
4.40400 0.05491
4.40600 0.09967
4.40800 -0.08868
4.41000 0.01720
4.41200 -0.00789
4.41400 -0.02278
4.41600 -0.01139
4.41800 -0.01660
4.42000 0.06152
4.42200 -0.07015
4.42400 0.11788
4.42600 -0.10776
4.42800 -0.14018
4.43000 -0.02007
4.43200 0.01408
4.43400 0.03978
4.43600 0.01297
4.43800 0.02516
4.44000 0.20379
4.44200 -0.06346
4.44400 0.00957
4.44600 -0.08508
4.44800 -0.03239
4.45000 -0.06910
4.45200 0.10564
4.45400 0.04537
4.45600 0.01223
4.45800 0.04944
4.46000 0.01363
4.46200 0.04783
4.46400 0.03282
4.46600 -0.00371
4.46800 -0.00965
4.47000 -0.07688
4.47200 -0.03894
4.47400 -0.05326
4.47600 -0.09215
4.47800 0.03074
4.48000 0.00909
4.48200 -0.00282
4.48400 -0.00735
4.48600 0.00525
4.48800 0.00515
4.49000 -0.14217
4.49200 -0.03301
4.49400 0.01435
4.49600 0.17786
4.49800 0.08076
4.50000 0.01614
4.50200 -0.02875
4.50400 0.02500
4.50600 -0.14123
4.50800 -0.00315
4.51000 0.12499
4.51200 0.05911
4.51400 -0.03635
4.51600 -0.03362
4.51800 0.02372
4.52000 0.00742
4.52200 -0.02370
4.52400 0.01054
4.52600 -0.00694
4.52800 0.04980
4.53000 0.01953
4.53200 -0.04132
4.53400 0.05556
4.53600 -0.04606
4.53800 -0.06116
4.54000 0.01487
4.54200 0.02029
4.54400 0.08793
4.54600 0.01559
4.54800 0.06718
4.55000 0.01931
4.55200 -0.06486
4.55400 0.02846
4.55600 0.00498
4.55800 0.07510
4.56000 0.05240
4.56200 0.05706
4.56400 0.00172
4.56600 -0.09403
4.56800 0.05026
4.57000 -0.00847
4.57200 0.01018
4.57400 -0.00218
4.57600 0.02421
4.57800 0.02520
4.58000 0.06727
4.58200 0.00582
4.58400 -0.03374
4.58600 0.02154
4.58800 0.04640
4.59000 -0.03597
4.59200 -0.02049
4.59400 -0.06052
4.59600 0.10507
4.59800 0.04670
4.60000 -0.02175
4.60200 -0.02264
4.60400 0.02019
4.60600 0.03224
4.60800 -0.00657
4.61000 -0.05852
4.61200 -0.04901
4.61400 -0.01607
4.61600 0.06118
4.61800 -0.05563
4.62000 0.07312
4.62200 -0.10189
4.62400 -0.01361
4.62600 -0.07151
4.62800 0.02081
4.63000 -0.06934
4.63200 0.04571
4.63400 0.09220
4.63600 -0.01815
4.63800 -0.12397
4.64000 0.06512
4.64200 0.03473
4.64400 0.00148
4.64600 0.06410
4.64800 -0.08189
4.65000 0.00455
4.65200 -0.11608
4.65400 0.13776
4.65600 0.12602
4.65800 0.06095
4.66000 0.02593
4.66200 0.00730
4.66400 -0.02620
4.66600 0.00831
4.66800 0.09872
4.67000 -0.08880
4.67200 0.00864
4.67400 -0.10259
4.67600 0.01040
4.67800 -0.01713
4.68000 0.12659
4.68200 -0.02485
4.68400 0.05873
4.68600 -0.03885
4.68800 -0.09056
4.69000 -0.02318
4.69200 0.16746
4.69400 0.01310
4.69600 0.08608
4.69800 0.07942
4.70000 0.02402
4.70200 -0.03545
4.70400 -0.14364
4.70600 -0.06712
4.70800 0.06746
4.71000 -0.01746
4.71200 0.03825
4.71400 0.05175
4.71600 0.06034
4.71800 -0.02850
4.72000 0.09839
4.72200 -0.01534
4.72400 0.04472
4.72600 -0.03109
4.72800 0.11185
4.73000 0.03183
4.73200 -0.06834
4.73400 -0.01127
4.73600 0.06271
4.73800 0.03066
4.74000 -0.00133
4.74200 0.04560
4.74400 0.04252
4.74600 -0.00959
4.74800 0.13624
4.75000 0.05159
4.75200 0.00011
4.75400 0.02102
4.75600 -0.00162
4.75800 0.05341
4.76000 0.04507
4.76200 -0.04771
4.76400 0.17303
4.76600 -0.02133
4.76800 -0.01982
4.77000 -0.08876
4.77200 -0.05596
4.77400 -0.08936
4.77600 -0.05926
4.77800 -0.05102
4.78000 -0.00615
4.78200 0.07409
4.78400 0.04448
4.78600 -0.11075
4.78800 -0.04225
4.79000 0.03564
4.79200 -0.03541
4.79400 0.03040
4.79600 0.02028
4.79800 -0.05533
4.80000 0.04102
4.80200 0.00748
4.80400 -0.04212
4.80600 0.09199
4.80800 0.03027
4.81000 0.01883
4.81200 0.07511
4.81400 0.05795
4.81600 0.05913
4.81800 0.04199
4.82000 0.08684
4.82200 0.00497
4.82400 0.06699
4.82600 0.06944
4.82800 0.08888
4.83000 0.09629
4.83200 0.05916
4.83400 0.01169
4.83600 0.00349
4.83800 0.01792
4.84000 0.03561
4.84200 0.12799
4.84400 -0.02351
4.84600 0.05567
4.84800 -0.02805
4.85000 -0.03118
4.85200 0.04255
4.85400 0.07080
4.85600 -0.06128
4.85800 0.04070
4.86000 0.05321
4.86200 0.03398
4.86400 -0.02987
4.86600 0.03774
4.86800 0.00804
4.87000 0.03381
4.87200 0.04370
4.87400 -0.13203
4.87600 0.04855
4.87800 -0.04121
4.88000 0.01629
4.88200 0.01906
4.88400 0.05677
4.88600 0.00941
4.88800 0.04339
4.89000 -0.07204
4.89200 0.10467
4.89400 0.10711
4.89600 -0.03510
4.89800 -0.14028
4.90000 -0.06190
4.90200 0.04033
4.90400 0.01044
4.90600 -0.03679
4.90800 0.00928
4.91000 -0.11691
4.91200 0.01441
4.91400 0.00790
4.91600 -0.10255
4.91800 -0.02552
4.92000 -0.06173
4.92200 0.03512
4.92400 0.06943
4.92600 -0.05970
4.92800 -0.03692
4.93000 -0.05163
4.93200 0.04564
4.93400 0.07468
4.93600 -0.09177
4.93800 0.11754
4.94000 0.00251
4.94200 -0.01182
4.94400 0.09840
4.94600 0.00182
4.94800 -0.12006
4.95000 0.02829
4.95200 0.05971
4.95400 -0.06912
4.95600 0.03589
4.95800 0.00546
4.96000 -0.00887
4.96200 0.00958
4.96400 -0.05972
4.96600 0.03063
4.96800 -0.13376
4.97000 -0.04730
4.97200 -0.01334
4.97400 0.06822
4.97600 -0.12642
4.97800 0.05332
4.98000 0.01934
4.98200 0.02816
4.98400 0.04175
4.98600 -0.03866
4.98800 -0.00632
4.99000 0.02470
4.99200 0.03765
4.99400 0.05973
4.99600 0.00765
4.99800 -0.04708
5.00000 0.05641
5.00200 0.05916
5.00400 0.04877
5.00600 0.03395
5.00800 0.02500
5.01000 0.04684
5.01200 -0.02758
5.01400 0.04899
5.01600 0.00195
5.01800 0.01740
5.02000 -0.03572
5.02200 -0.10499
5.02400 0.04311
5.02600 0.07921
5.02800 0.04756
5.03000 0.00834
5.03200 -0.00411
5.03400 -0.01280
5.03600 -0.04717
5.03800 0.00227
5.04000 0.06949
5.04200 -0.02214
5.04400 0.04906
5.04600 -0.01115
5.04800 0.03050
5.05000 0.10339
5.05200 0.03368
5.05400 -0.03810
5.05600 -0.02085
5.05800 -0.09407
5.06000 -0.01791
5.06200 -0.03738
5.06400 0.04572
5.06600 -0.02124
5.06800 0.03733
5.07000 0.09218
5.07200 0.41958
5.07400 0.85278
5.07600 1.48787
5.07800 1.46945
5.08000 0.92309
5.08200 0.30203
5.08400 0.13476
5.08600 0.09031
5.08800 -0.02114
5.09000 -0.05239
5.09200 0.07586
5.09400 0.03136
5.09600 -0.07886
5.09800 0.02050
5.10000 -0.05510
5.10200 -0.07645
5.10400 -0.03782
5.10600 -0.02409
5.10800 0.02080
5.11000 0.03528
5.11200 -0.03842
5.11400 0.06266
5.11600 -0.04702
5.11800 0.00110
5.12000 -0.02652
5.12200 0.00953
5.12400 -0.01118
5.12600 -0.07921
5.12800 0.04137
5.13000 0.17779
5.13200 0.12189
5.13400 -0.02805
5.13600 -0.07034
5.13800 -0.04052
5.14000 -0.00175
5.14200 0.06532
5.14400 -0.08447
5.14600 -0.10015
5.14800 -0.00925
5.15000 0.09415
5.15200 -0.00115
5.15400 -0.00371
5.15600 0.07487
5.15800 -0.00321
5.16000 0.04590
5.16200 0.09427
5.16400 0.03477
5.16600 0.11728
5.16800 -0.01232
5.17000 -0.08012
5.17200 0.06391
5.17400 0.01940
5.17600 -0.00008
5.17800 -0.05936
5.18000 0.06704
5.18200 -0.04754
5.18400 -0.02384
5.18600 0.00149
5.18800 -0.05910
5.19000 0.09719
5.19200 0.03006
5.19400 -0.04252
5.19600 0.08816
5.19800 -0.01480
5.20000 0.09121
5.20200 0.08665
5.20400 -0.06996
5.20600 -0.01471
5.20800 0.04088
5.21000 0.03912
5.21200 -0.02248
5.21400 0.03001
5.21600 -0.04925
5.21800 -0.05719
5.22000 -0.06288
5.22200 -0.07440
5.22400 0.01570
5.22600 0.05734
5.22800 0.06388
5.23000 -0.00203
5.23200 0.12119
5.23400 -0.02954
5.23600 0.01242
5.23800 -0.03891
5.24000 -0.00142
5.24200 0.10405
5.24400 0.05784
5.24600 -0.08578
5.24800 -0.09935
5.25000 -0.02066
5.25200 -0.01921
5.25400 -0.01658
5.25600 -0.07796
5.25800 -0.12839
5.26000 0.03914
5.26200 -0.04234
5.26400 -0.08406
5.26600 0.03907
5.26800 0.00171
5.27000 -0.08905
5.27200 0.03567
5.27400 -0.00103
5.27600 0.03383
5.27800 0.02646
5.28000 0.00429
5.28200 -0.03136
5.28400 -0.00873
5.28600 -0.05845
5.28800 0.06020
5.29000 0.00079
5.29200 -0.03538
5.29400 0.05379
5.29600 -0.03811
5.29800 -0.05395
5.30000 -0.08839
5.30200 0.01935
5.30400 0.05983
5.30600 -0.05067
5.30800 0.05073
5.31000 0.04126
5.31200 0.00071
5.31400 0.07337
5.31600 -0.04963
5.31800 0.07153
5.32000 0.04933
5.32200 0.05659
5.32400 0.00496
5.32600 -0.01583
5.32800 0.01130
5.33000 0.02492
5.33200 0.02072
5.33400 -0.00774
5.33600 0.03186
5.33800 -0.00868
5.34000 -0.01864
5.34200 0.07913
5.34400 0.03080
5.34600 -0.00946
5.34800 -0.08667
5.35000 -0.07882
5.35200 0.09717
5.35400 0.07457
5.35600 -0.01417
5.35800 -0.01961
5.36000 0.00287
5.36200 -0.01602
5.36400 -0.06684
5.36600 0.03611
5.36800 0.15360
5.37000 -0.02022
5.37200 -0.12003
5.37400 0.03241
5.37600 -0.02710
5.37800 -0.04503
5.38000 0.01590
5.38200 0.01581
5.38400 0.10350
5.38600 -0.04280
5.38800 -0.03809
5.39000 -0.03582
5.39200 -0.12869
5.39400 0.15567
5.39600 -0.16449
5.39800 -0.04877
5.40000 -0.04843
5.40200 0.03160
5.40400 -0.02284
5.40600 0.08261
5.40800 0.04522
5.41000 -0.00012
5.41200 -0.18382
5.41400 -0.06461
5.41600 0.04744
5.41800 0.03283
5.42000 -0.01769
5.42200 0.06117
5.42400 -0.02661
5.42600 0.01343
5.42800 -0.05017
5.43000 0.04778
5.43200 -0.04207
5.43400 -0.01491
5.43600 0.00074
5.43800 -0.03063
5.44000 0.01838
5.44200 0.16561
5.44400 0.00017
5.44600 -0.02494
5.44800 0.01674
5.45000 -0.06242
5.45200 0.04236
5.45400 -0.05527
5.45600 0.05040
5.45800 0.00792
5.46000 0.04311
5.46200 0.01312
5.46400 0.01663
5.46600 0.06741
5.46800 0.01399
5.47000 0.12314
5.47200 0.00243
5.47400 0.06223
5.47600 -0.01138
5.47800 0.06582
5.48000 -0.02987
5.48200 0.01594
5.48400 -0.04517
5.48600 0.09348
5.48800 -0.01527
5.49000 0.00297
5.49200 0.01890
5.49400 -0.04009
5.49600 -0.02668
5.49800 0.02548
5.50000 0.04452
5.50200 -0.03193
5.50400 -0.01850
5.50600 0.07451
5.50800 0.03728
5.51000 -0.00148
5.51200 -0.00038
5.51400 0.19049
5.51600 0.06421
5.51800 -0.04815
5.52000 -0.06358
5.52200 0.16437
5.52400 -0.06856
5.52600 -0.05629
5.52800 0.14032
5.53000 -0.00079
5.53200 0.07339
5.53400 -0.05203
5.53600 0.02436
5.53800 0.01239
5.54000 0.00840
5.54200 0.00515
5.54400 -0.01024
5.54600 -0.00774
5.54800 0.06085
5.55000 0.02902
5.55200 -0.01437
5.55400 0.00001
5.55600 0.05391
5.55800 0.02619
5.56000 -0.01127
5.56200 0.00729
5.56400 -0.01642
5.56600 0.13801
5.56800 -0.09320
5.57000 -0.04235
5.57200 0.04910
5.57400 0.11983
5.57600 0.00343
5.57800 -0.14409
5.58000 0.03541
5.58200 0.06712
5.58400 0.02801
5.58600 0.07672
5.58800 -0.02186
5.59000 0.00297
5.59200 0.02933
5.59400 0.05507
5.59600 0.08720
5.59800 -0.07160
5.60000 0.07026
5.60200 -0.03071
5.60400 0.04315
5.60600 -0.01311
5.60800 0.09522
5.61000 0.04921
5.61200 -0.00126
5.61400 0.01767
5.61600 0.02716
5.61800 0.00090
5.62000 0.08108
5.62200 0.00065
5.62400 -0.04033
5.62600 0.02961
5.62800 0.08144
5.63000 0.00692
5.63200 0.10302
5.63400 0.06128
5.63600 -0.12366
5.63800 0.03083
5.64000 -0.03739
5.64200 0.09937
5.64400 -0.03929
5.64600 -0.02593
5.64800 0.07839
5.65000 -0.03198
5.65200 -0.01900
5.65400 0.06047
5.65600 -0.00006
5.65800 -0.02627
5.66000 -0.03428
5.66200 0.01943
5.66400 0.03197
5.66600 -0.02514
5.66800 0.01510
5.67000 -0.10429
5.67200 0.00372
5.67400 0.06593
5.67600 -0.12267
5.67800 -0.01830
5.68000 0.09441
5.68200 -0.10826
5.68400 -0.00245
5.68600 -0.03793
5.68800 0.04769
5.69000 -0.00548
5.69200 0.04072
5.69400 -0.05282
5.69600 0.06718
5.69800 -0.03567
5.70000 0.00849
5.70200 -0.00145
5.70400 -0.03644
5.70600 0.01676
5.70800 0.02537
5.71000 0.03725
5.71200 0.07427
5.71400 -0.00808
5.71600 0.08739
5.71800 -0.03361
5.72000 -0.09398
5.72200 0.08058
5.72400 -0.11070
5.72600 0.01774
5.72800 0.01577
5.73000 -0.08688
5.73200 -0.02292
5.73400 -0.06671
5.73600 0.01642
5.73800 -0.00742
5.74000 0.04342
5.74200 -0.01036
5.74400 0.13862
5.74600 0.19974
5.74800 -0.00399
5.75000 -0.03874
5.75200 -0.04336
5.75400 -0.05220
5.75600 0.02266
5.75800 -0.09110
5.76000 0.05762
5.76200 -0.14134
5.76400 0.01359
5.76600 -0.03311
5.76800 0.08023
5.77000 0.10203
5.77200 -0.01260
5.77400 0.11553
5.77600 0.07526
5.77800 -0.01116
5.78000 0.04248
5.78200 0.12413
5.78400 0.01894
5.78600 0.03392
5.78800 0.00465
5.79000 0.01916
5.79200 -0.01334
5.79400 0.02808
5.79600 -0.02534
5.79800 0.09373
5.80000 0.02999
5.80200 -0.07990
5.80400 0.02958
5.80600 0.00813
5.80800 -0.01324
5.81000 0.09901
5.81200 -0.02993
5.81400 -0.05252
5.81600 -0.10340
5.81800 -0.02074
5.82000 -0.02641
5.82200 0.07554
5.82400 -0.06862
5.82600 0.05070
5.82800 0.06901
5.83000 -0.00093
5.83200 -0.04056
5.83400 0.03724
5.83600 0.09359
5.83800 0.01550
5.84000 -0.02795
5.84200 0.04224
5.84400 0.04659
5.84600 0.05393
5.84800 0.01762
5.85000 -0.03224
5.85200 0.06874
5.85400 -0.01341
5.85600 0.08868
5.85800 0.01631
5.86000 0.05056
5.86200 -0.00024
5.86400 -0.04018
5.86600 -0.12578
5.86800 0.05974
5.87000 -0.06468
5.87200 -0.00478
5.87400 0.01893
5.87600 0.04157
5.87800 -0.00602
5.88000 -0.02614
5.88200 0.04484
5.88400 -0.01150
5.88600 -0.01939
5.88800 -0.00592
5.89000 0.02372
5.89200 -0.07608
5.89400 0.06874
5.89600 -0.05069
5.89800 0.05340
5.90000 0.10994
5.90200 0.07743
5.90400 -0.02845
5.90600 0.07752
5.90800 0.02806
5.91000 -0.09173
5.91200 0.05519
5.91400 -0.06776
5.91600 -0.07502
5.91800 -0.05978
5.92000 -0.00786
5.92200 -0.02258
5.92400 -0.06378
5.92600 0.06728
5.92800 0.02420
5.93000 -0.03603
5.93200 0.03712
5.93400 0.04046
5.93600 -0.01587
5.93800 0.06838
5.94000 0.00790
5.94200 0.00365
5.94400 0.01897
5.94600 0.00541
5.94800 -0.01099
5.95000 -0.02828
5.95200 0.03759
5.95400 -0.05998
5.95600 0.01612
5.95800 0.00112
5.96000 -0.04396
5.96200 0.00548
5.96400 0.03581
5.96600 0.04533
5.96800 0.00523
5.97000 -0.07460
5.97200 -0.06254
5.97400 0.00888
5.97600 0.01565
5.97800 0.08248
5.98000 0.09080
5.98200 0.03258
5.98400 -0.01138
5.98600 0.05254
5.98800 0.10425
5.99000 -0.05100
5.99200 0.09283
5.99400 0.14788
5.99600 0.68454
5.99800 1.16433
6.00000 1.57092
6.00200 1.20140
6.00400 0.67492
6.00600 0.28155
6.00800 0.08942
6.01000 0.02925
6.01200 0.01056
6.01400 -0.07508
6.01600 0.02390
6.01800 0.02934
6.02000 0.03575
6.02200 0.07039
6.02400 0.14602
6.02600 0.00894
6.02800 0.08547
6.03000 0.03989
6.03200 0.03260
6.03400 -0.06008
6.03600 0.00710
6.03800 0.06751
6.04000 -0.01909
6.04200 0.06859
6.04400 -0.02941
6.04600 0.04639
6.04800 -0.06838
6.05000 -0.13448
6.05200 -0.01689
6.05400 0.02525
6.05600 0.02116
6.05800 -0.07070
6.06000 -0.00632
6.06200 0.09402
6.06400 -0.04102
6.06600 -0.06521
6.06800 -0.02880
6.07000 0.00515
6.07200 -0.11193
6.07400 -0.09575
6.07600 -0.06085
6.07800 -0.05964
6.08000 0.00646
6.08200 0.05038
6.08400 -0.01271
6.08600 -0.24392
6.08800 0.00028
6.09000 0.02683
6.09200 -0.00925
6.09400 0.04873
6.09600 -0.02598
6.09800 0.05950
6.10000 0.02673
6.10200 0.00021
6.10400 -0.04179
6.10600 0.06517
6.10800 0.01276
6.11000 0.03594
6.11200 0.04022
6.11400 -0.04601
6.11600 -0.01522
6.11800 -0.01671
6.12000 -0.02924
6.12200 -0.05039
6.12400 0.00498
6.12600 0.05191
6.12800 -0.11424
6.13000 0.06378
6.13200 0.05861
6.13400 -0.06501
6.13600 0.03807
6.13800 -0.01544
6.14000 -0.00928
6.14200 0.00417
6.14400 -0.01171
6.14600 0.01867
6.14800 0.03733
6.15000 0.05434
6.15200 0.04464
6.15400 0.05716
6.15600 -0.01449
6.15800 -0.03969
6.16000 0.13621
6.16200 -0.09518
6.16400 0.01011
6.16600 -0.07993
6.16800 0.02394
6.17000 0.04048
6.17200 0.01168
6.17400 -0.03969
6.17600 -0.01642
6.17800 0.08781
6.18000 -0.04276
6.18200 -0.02796
6.18400 0.03119
6.18600 -0.13896
6.18800 0.05074
6.19000 0.00360
6.19200 -0.15046
6.19400 -0.02599
6.19600 -0.03622
6.19800 0.07617
6.20000 0.10416
6.20200 0.02766
6.20400 -0.06151
6.20600 0.09194
6.20800 0.06961
6.21000 -0.04036
6.21200 0.02990
6.21400 0.00606
6.21600 -0.02327
6.21800 -0.06214
6.22000 0.04374
6.22200 0.01323
6.22400 -0.02423
6.22600 0.03133
6.22800 0.06861
6.23000 -0.09378
6.23200 -0.12701
6.23400 0.05483
6.23600 -0.01477
6.23800 0.01397
6.24000 0.09115
6.24200 0.05590
6.24400 0.03344
6.24600 0.03228
6.24800 -0.05500
6.25000 0.09937
6.25200 -0.01070
6.25400 -0.05851
6.25600 0.05814
6.25800 0.00429
6.26000 -0.09859
6.26200 -0.00852
6.26400 -0.09736
6.26600 -0.08977
6.26800 0.10751
6.27000 0.00260
6.27200 0.03417
6.27400 0.00338
6.27600 0.02098
6.27800 -0.08353
6.28000 0.01719
6.28200 -0.05090
6.28400 -0.02310
6.28600 -0.09975
6.28800 -0.04190
6.29000 -0.00740
6.29200 -0.04222
6.29400 -0.05867
6.29600 0.13224
6.29800 -0.07843
6.30000 -0.01593
6.30200 0.06353
6.30400 0.05358
6.30600 0.03612
6.30800 0.03609
6.31000 0.03659
6.31200 -0.08900
6.31400 0.05530
6.31600 -0.00342
6.31800 0.02704
6.32000 -0.01725
6.32200 -0.13798
6.32400 -0.00815
6.32600 -0.08625
6.32800 0.05614
6.33000 -0.01315
6.33200 -0.06591
6.33400 0.03385
6.33600 0.03641
6.33800 -0.08483
6.34000 0.03570
6.34200 0.05950
6.34400 -0.18691
6.34600 0.19491
6.34800 -0.00336
6.35000 0.01585
6.35200 -0.06007
6.35400 0.03191
6.35600 0.08534
6.35800 -0.03870
6.36000 -0.04322
6.36200 -0.08681
6.36400 0.01000
6.36600 -0.04463
6.36800 0.02067
6.37000 -0.00063
6.37200 -0.10071
6.37400 0.04909
6.37600 0.00540
6.37800 0.04912
6.38000 -0.05139
6.38200 -0.02750
6.38400 -0.08109
6.38600 -0.17705
6.38800 -0.03618
6.39000 -0.02349
6.39200 0.00322
6.39400 -0.00246
6.39600 -0.07007
6.39800 -0.15693
6.40000 -0.01420
6.40200 0.03024
6.40400 0.17730
6.40600 0.05049
6.40800 -0.08335
6.41000 0.08993
6.41200 0.14742
6.41400 -0.05084
6.41600 0.04175
6.41800 -0.01777
6.42000 0.01102
6.42200 0.00615
6.42400 -0.04486
6.42600 0.07994
6.42800 -0.04373
6.43000 0.06676
6.43200 -0.05770
6.43400 0.02214
6.43600 -0.04862
6.43800 0.02007
6.44000 0.05164
6.44200 -0.01727
6.44400 0.00971
6.44600 -0.05617
6.44800 0.05492
6.45000 0.05149
6.45200 0.02055
6.45400 0.04626
6.45600 -0.06309
6.45800 -0.00133
6.46000 -0.08887
6.46200 0.10407
6.46400 0.05119
6.46600 -0.05260
6.46800 0.12332
6.47000 0.09584
6.47200 0.06333
6.47400 0.02732
6.47600 0.05000
6.47800 -0.02827
6.48000 0.02544
6.48200 -0.00447
6.48400 0.01223
6.48600 0.00381
6.48800 -0.10679
6.49000 -0.02447
6.49200 0.03842
6.49400 0.04531
6.49600 0.02219
6.49800 -0.04552
6.50000 0.03309
6.50200 0.00142
6.50400 0.06983
6.50600 -0.04265
6.50800 -0.04939
6.51000 0.04119
6.51200 0.02428
6.51400 -0.04166
6.51600 0.06705
6.51800 0.01578
6.52000 0.00016
6.52200 -0.02741
6.52400 -0.00640
6.52600 -0.06095
6.52800 -0.15716
6.53000 0.02008
6.53200 -0.04062
6.53400 0.00947
6.53600 -0.10712
6.53800 0.01202
6.54000 0.00832
6.54200 -0.03606
6.54400 0.06307
6.54600 -0.00337
6.54800 -0.01505
6.55000 0.07804
6.55200 -0.16085
6.55400 0.12158
6.55600 0.03291
6.55800 -0.01177
6.56000 -0.09264
6.56200 0.07868
6.56400 -0.08843
6.56600 -0.08617
6.56800 0.09044
6.57000 0.08192
6.57200 0.03229
6.57400 0.04836
6.57600 0.09090
6.57800 0.00560
6.58000 0.01908
6.58200 -0.01724
6.58400 0.00290
6.58600 0.10336
6.58800 -0.03218
6.59000 0.00451
6.59200 -0.00910
6.59400 0.04795
6.59600 -0.04375
6.59800 -0.03905
6.60000 -0.03941
6.60200 -0.05500
6.60400 -0.06943
6.60600 0.09818
6.60800 -0.03415
6.61000 0.00103
6.61200 0.03753
6.61400 -0.01453
6.61600 -0.04728
6.61800 0.04273
6.62000 0.07767
6.62200 0.05599
6.62400 0.00399
6.62600 0.02660
6.62800 -0.00399
6.63000 -0.03126
6.63200 0.06353
6.63400 0.00514
6.63600 -0.07518
6.63800 0.09803
6.64000 0.02069
6.64200 0.05366
6.64400 -0.09756
6.64600 -0.07360
6.64800 0.02013
6.65000 -0.01426
6.65200 -0.04385
6.65400 -0.09626
6.65600 0.03269
6.65800 0.00322
6.66000 0.02091
6.66200 -0.00921
6.66400 -0.05772
6.66600 -0.05583
6.66800 0.06490
6.67000 0.07865
6.67200 -0.06779
6.67400 -0.17880
6.67600 -0.06253
6.67800 0.04653
6.68000 0.06111
6.68200 -0.02551
6.68400 -0.02973
6.68600 -0.03516
6.68800 0.02771
6.69000 0.00803
6.69200 -0.07891
6.69400 -0.00957
6.69600 -0.03310
6.69800 -0.00214
6.70000 0.04573
6.70200 -0.07237
6.70400 0.05647
6.70600 -0.02247
6.70800 0.13464
6.71000 0.03126
6.71200 -0.07832
6.71400 -0.03457
6.71600 0.04519
6.71800 -0.09247
6.72000 -0.03390
6.72200 -0.01260
6.72400 0.02314
6.72600 0.02259
6.72800 0.03598
6.73000 -0.01615
6.73200 -0.09810
6.73400 -0.06052
6.73600 -0.06028
6.73800 -0.02031
6.74000 0.03535
6.74200 0.14638
6.74400 0.07686
6.74600 0.00425
6.74800 -0.14285
6.75000 -0.07677
6.75200 0.05341
6.75400 0.08195
6.75600 0.04365
6.75800 -0.06782
6.76000 0.05699
6.76200 0.03412
6.76400 0.05186
6.76600 -0.02154
6.76800 -0.01506
6.77000 -0.05136
6.77200 -0.10197
6.77400 0.08251
6.77600 -0.00998
6.77800 0.05972
6.78000 0.10479
6.78200 -0.03242
6.78400 -0.04422
6.78600 -0.03520
6.78800 0.04631
6.79000 -0.11865
6.79200 0.06042
6.79400 0.02348
6.79600 0.02042
6.79800 -0.01975
6.80000 -0.04211
6.80200 -0.05798
6.80400 -0.00409
6.80600 -0.11383
6.80800 0.01139
6.81000 -0.01448
6.81200 -0.06746
6.81400 -0.00481
6.81600 0.05964
6.81800 -0.02283
6.82000 -0.10794
6.82200 -0.06074
6.82400 0.04690
6.82600 -0.03399
6.82800 -0.05979
6.83000 0.09638
6.83200 -0.02359
6.83400 -0.01026
6.83600 0.06941
6.83800 0.02054
6.84000 0.04685
6.84200 0.00490
6.84400 -0.00109
6.84600 -0.02759
6.84800 0.02319
6.85000 -0.02792
6.85200 0.04690
6.85400 0.02718
6.85600 -0.05932
6.85800 -0.17741
6.86000 -0.00280
6.86200 0.07620
6.86400 -0.01494
6.86600 -0.00804
6.86800 0.03690
6.87000 -0.01064
6.87200 -0.03972
6.87400 0.12862
6.87600 -0.05678
6.87800 -0.04186
6.88000 -0.10405
6.88200 0.02994
6.88400 0.00058
6.88600 0.03291
6.88800 0.06231
6.89000 0.00696
6.89200 -0.00046
6.89400 0.04676
6.89600 -0.01670
6.89800 0.11432
6.90000 -0.04903
6.90200 -0.04990
6.90400 -0.05842
6.90600 0.01375
6.90800 0.00160
6.91000 0.04660
6.91200 0.02649
6.91400 -0.08900
6.91600 0.12225
6.91800 0.34648
6.92000 0.88580
6.92200 1.41635
6.92400 1.45950
6.92600 0.99849
6.92800 0.39640
6.93000 0.13948
6.93200 0.18845
6.93400 -0.16019
6.93600 -0.04075
6.93800 0.06300
6.94000 0.02903
6.94200 -0.01040
6.94400 0.13685
6.94600 0.00187
6.94800 -0.05894
6.95000 -0.02101
6.95200 -0.01301
6.95400 -0.06192
6.95600 -0.09740
6.95800 -0.05778
6.96000 0.04209
6.96200 0.07650
6.96400 -0.00513
6.96600 -0.03995
6.96800 0.10221
6.97000 0.02915
6.97200 0.09342
6.97400 0.00071
6.97600 -0.04169
6.97800 0.02051
6.98000 0.02330
6.98200 0.08778
6.98400 0.00299
6.98600 -0.00385
6.98800 -0.01312
6.99000 -0.02888
6.99200 0.03052
6.99400 -0.05920
6.99600 -0.07608
6.99800 0.03473
7.00000 0.03027
7.00200 -0.09772
7.00400 0.03172
7.00600 -0.12879
7.00800 -0.02933
7.01000 0.02304
7.01200 -0.10007
7.01400 0.00205
7.01600 -0.02426
7.01800 -0.03573
7.02000 0.04483
7.02200 -0.06824
7.02400 -0.02299
7.02600 -0.00991
7.02800 -0.05295
7.03000 -0.00804
7.03200 0.03367
7.03400 0.03454
7.03600 0.07504
7.03800 -0.04847
7.04000 0.06303
7.04200 0.03868
7.04400 0.07763
7.04600 0.16614
7.04800 -0.05764
7.05000 -0.03979
7.05200 -0.06904
7.05400 0.10714
7.05600 0.08848
7.05800 -0.00069
7.06000 0.00470
7.06200 0.06035
7.06400 0.01839
7.06600 -0.04217
7.06800 0.01699
7.07000 -0.11130
7.07200 -0.00765
7.07400 -0.03079
7.07600 -0.08060
7.07800 0.02645
7.08000 0.02271
7.08200 0.01685
7.08400 -0.00239
7.08600 -0.03422
7.08800 -0.00794
7.09000 -0.03281
7.09200 -0.01191
7.09400 -0.02301
7.09600 -0.01151
7.09800 -0.12156
7.10000 -0.07010
7.10200 0.05158
7.10400 0.05141
7.10600 0.02544
7.10800 0.03994
7.11000 0.11741
7.11200 -0.01067
7.11400 -0.04439
7.11600 0.06944
7.11800 0.06312
7.12000 -0.09831
7.12200 0.04644
7.12400 0.01248
7.12600 -0.02694
7.12800 0.02088
7.13000 0.02186
7.13200 0.13660
7.13400 0.00372
7.13600 0.10092
7.13800 0.05432
7.14000 0.13377
7.14200 -0.08798
7.14400 0.02101
7.14600 -0.03340
7.14800 0.02000
7.15000 -0.12145
7.15200 -0.03418
7.15400 0.01495
7.15600 0.02411
7.15800 -0.05272
7.16000 0.01566
7.16200 0.04754
7.16400 -0.06267
7.16600 0.03896
7.16800 0.04679
7.17000 0.03789
7.17200 -0.02048
7.17400 -0.00434
7.17600 0.03622
7.17800 0.01857
7.18000 0.00017
7.18200 -0.08677
7.18400 0.07779
7.18600 -0.01130
7.18800 0.05587
7.19000 0.04181
7.19200 -0.06933
7.19400 0.00084
7.19600 -0.05935
7.19800 -0.00522
7.20000 0.02662
7.20200 0.04587
7.20400 -0.04669
7.20600 -0.00166
7.20800 0.07124
7.21000 -0.00600
7.21200 0.03973
7.21400 0.02037
7.21600 -0.02973
7.21800 -0.05894
7.22000 -0.04428
7.22200 0.08322
7.22400 0.06015
7.22600 0.06165
7.22800 -0.05934
7.23000 0.07520
7.23200 0.11218
7.23400 0.11094
7.23600 0.06850
7.23800 -0.02124
7.24000 0.01876
7.24200 0.01592
7.24400 -0.06319
7.24600 0.09469
7.24800 -0.01782
7.25000 -0.03341
7.25200 -0.06092
7.25400 0.12121
7.25600 0.10846
7.25800 -0.05838
7.26000 -0.05067
7.26200 0.05912
7.26400 -0.05991
7.26600 0.09268
7.26800 -0.12215
7.27000 -0.01119
7.27200 0.06590
7.27400 0.04746
7.27600 -0.00355
7.27800 -0.00875
7.28000 0.04291
7.28200 -0.00651
7.28400 -0.06795
7.28600 -0.08225
7.28800 0.10413
7.29000 -0.00752
7.29200 0.01447
7.29400 0.00395
7.29600 0.07928
7.29800 -0.03050
7.30000 -0.02966
7.30200 0.02262
7.30400 0.10230
7.30600 -0.00773
7.30800 -0.08310
7.31000 -0.05847
7.31200 0.02896
7.31400 0.02410
7.31600 -0.02194
7.31800 -0.00212
7.32000 0.01743
7.32200 0.01185
7.32400 0.05412
7.32600 -0.06961
7.32800 0.02052
7.33000 0.00661
7.33200 0.01639
7.33400 -0.02083
7.33600 -0.01792
7.33800 -0.01887
7.34000 0.11345
7.34200 0.04651
7.34400 -0.00194
7.34600 -0.12273
7.34800 -0.02949
7.35000 0.02782
7.35200 0.04303
7.35400 -0.02186
7.35600 -0.02117
7.35800 0.13550
7.36000 0.01911
7.36200 0.08871
7.36400 -0.01395
7.36600 -0.00524
7.36800 0.00429
7.37000 -0.01543
7.37200 -0.04325
7.37400 -0.05760
7.37600 0.08055
7.37800 0.01378
7.38000 -0.03542
7.38200 0.01563
7.38400 0.01434
7.38600 -0.02321
7.38800 0.09326
7.39000 -0.00904
7.39200 0.03047
7.39400 -0.01668
7.39600 0.07777
7.39800 0.08552
7.40000 -0.06100
7.40200 -0.01944
7.40400 0.04042
7.40600 -0.09306
7.40800 0.02102
7.41000 0.01531
7.41200 0.05859
7.41400 -0.00347
7.41600 -0.01969
7.41800 0.05133
7.42000 -0.06499
7.42200 -0.02060
7.42400 0.09061
7.42600 0.02763
7.42800 -0.04352
7.43000 0.03251
7.43200 0.02062
7.43400 0.05229
7.43600 -0.11585
7.43800 0.08263
7.44000 0.07458
7.44200 0.02670
7.44400 -0.11107
7.44600 -0.05984
7.44800 0.06420
7.45000 -0.09411
7.45200 0.01994
7.45400 0.12138
7.45600 -0.05089
7.45800 -0.00798
7.46000 -0.08011
7.46200 0.04381
7.46400 -0.03821
7.46600 -0.13079
7.46800 -0.01762
7.47000 0.01648
7.47200 0.09542
7.47400 -0.01531
7.47600 0.03022
7.47800 -0.03832
7.48000 -0.02716
7.48200 0.02622
7.48400 0.11717
7.48600 0.01464
7.48800 -0.02600
7.49000 0.01591
7.49200 0.01316
7.49400 0.00861
7.49600 -0.03269
7.49800 -0.17445
7.50000 0.11499
7.50200 0.01787
7.50400 -0.00048
7.50600 0.03063
7.50800 -0.01989
7.51000 0.06411
7.51200 0.07295
7.51400 -0.05455
7.51600 -0.10198
7.51800 -0.06945
7.52000 0.03537
7.52200 -0.01427
7.52400 -0.00606
7.52600 0.09003
7.52800 0.00509
7.53000 -0.07642
7.53200 0.07246
7.53400 0.00060
7.53600 -0.02513
7.53800 -0.01989
7.54000 0.04041
7.54200 0.01991
7.54400 0.03428
7.54600 -0.01214
7.54800 -0.03678
7.55000 0.05923
7.55200 -0.07774
7.55400 -0.00836
7.55600 -0.01222
7.55800 -0.01814
7.56000 -0.16372
7.56200 -0.06163
7.56400 0.08925
7.56600 -0.01580
7.56800 -0.00247
7.57000 0.04607
7.57200 0.03806
7.57400 0.05070
7.57600 0.02196
7.57800 0.01613
7.58000 -0.07039
7.58200 -0.01571
7.58400 -0.00827
7.58600 0.00298
7.58800 -0.01051
7.59000 0.01696
7.59200 0.04609
7.59400 -0.06271
7.59600 0.05913
7.59800 0.04191
7.60000 -0.04343
7.60200 0.03983
7.60400 -0.03945
7.60600 0.05746
7.60800 0.01906
7.61000 0.03172
7.61200 0.00220
7.61400 0.09066
7.61600 0.05878
7.61800 -0.03346
7.62000 -0.02458
7.62200 0.04414
7.62400 0.01308
7.62600 0.00445
7.62800 0.03964
7.63000 0.19904
7.63200 -0.02927
7.63400 0.01464
7.63600 -0.01578
7.63800 0.11716
7.64000 -0.04545
7.64200 0.02029
7.64400 0.11886
7.64600 0.03028
7.64800 -0.06848
7.65000 0.01622
7.65200 -0.05578
7.65400 -0.00676
7.65600 0.04544
7.65800 -0.05126
7.66000 -0.03310
7.66200 -0.04759
7.66400 -0.05543
7.66600 -0.01077
7.66800 0.06977
7.67000 0.01618
7.67200 0.01091
7.67400 0.03982
7.67600 -0.07195
7.67800 -0.01023
7.68000 0.00228
7.68200 0.00067
7.68400 0.06073
7.68600 0.10981
7.68800 0.08267
7.69000 -0.11862
7.69200 -0.00981
7.69400 -0.12861
7.69600 -0.10360
7.69800 0.09907
7.70000 -0.00973
7.70200 0.00984
7.70400 -0.03948
7.70600 -0.00032
7.70800 -0.13460
7.71000 -0.15995
7.71200 -0.07873
7.71400 0.01877
7.71600 0.00588
7.71800 0.03669
7.72000 0.01517
7.72200 0.03497
7.72400 0.08902
7.72600 -0.08570
7.72800 0.06092
7.73000 0.00243
7.73200 -0.04070
7.73400 0.01109
7.73600 -0.06468
7.73800 -0.01290
7.74000 0.01168
7.74200 -0.03824
7.74400 0.04934
7.74600 -0.08802
7.74800 -0.03256
7.75000 0.04283
7.75200 -0.08693
7.75400 -0.01833
7.75600 -0.09956
7.75800 0.04959
7.76000 -0.00711
7.76200 -0.02101
7.76400 0.07585
7.76600 0.00958
7.76800 -0.03477
7.77000 -0.06234
7.77200 0.01492
7.77400 -0.01303
7.77600 -0.00388
7.77800 -0.06082
7.78000 0.04041
7.78200 -0.04161
7.78400 0.13345
7.78600 -0.07355
7.78800 0.05334
7.79000 0.00285
7.79200 -0.05477
7.79400 0.02306
7.79600 0.01981
7.79800 -0.01131
7.80000 -0.02940
7.80200 -0.09392
7.80400 0.09784
7.80600 0.03108
7.80800 -0.00460
7.81000 0.01317
7.81200 -0.09609
7.81400 0.08113
7.81600 0.02971
7.81800 -0.03233
7.82000 -0.01225
7.82200 0.01739
7.82400 0.01185
7.82600 -0.05193
7.82800 -0.06280
7.83000 0.02188
7.83200 -0.15012
7.83400 0.01414
7.83600 -0.02353
7.83800 0.06820
7.84000 0.15647
7.84200 0.67808
7.84400 1.13609
7.84600 1.55849
7.84800 1.16649
7.85000 0.62577
7.85200 0.25268
7.85400 -0.05846
7.85600 0.06299
7.85800 0.08662
7.86000 0.10650
7.86200 0.02527
7.86400 -0.03727
7.86600 0.07882
7.86800 0.03346
7.87000 -0.08129
7.87200 -0.01169
7.87400 0.05155
7.87600 0.03060
7.87800 -0.03209
7.88000 0.06707
7.88200 -0.09356
7.88400 0.08825
7.88600 0.03906
7.88800 0.05655
7.89000 0.07681
7.89200 0.01753
7.89400 0.01233
7.89600 -0.01922
7.89800 -0.09276
7.90000 0.02892
7.90200 0.04332
7.90400 -0.10248
7.90600 0.07530
7.90800 -0.00920
7.91000 0.00983
7.91200 -0.09465
7.91400 -0.02292
7.91600 0.05786
7.91800 -0.06134
7.92000 -0.07405
7.92200 0.00061
7.92400 -0.03935
7.92600 0.02131
7.92800 -0.09737
7.93000 0.00943
7.93200 0.05008
7.93400 0.00242
7.93600 -0.04711
7.93800 0.13323
7.94000 -0.01094
7.94200 0.05552
7.94400 0.03057
7.94600 -0.00831
7.94800 -0.05279
7.95000 0.12102
7.95200 -0.04267
7.95400 -0.04232
7.95600 0.08946
7.95800 -0.00801
7.96000 -0.01799
7.96200 -0.00176
7.96400 -0.05257
7.96600 0.00278
7.96800 -0.08551
7.97000 0.02324
7.97200 -0.06606
7.97400 -0.00868
7.97600 0.04133
7.97800 -0.10373
7.98000 0.07744
7.98200 -0.03193
7.98400 0.11453
7.98600 0.01137
7.98800 0.00456
7.99000 0.12746
7.99200 0.01014
7.99400 -0.06997
7.99600 0.20482
7.99800 -0.00406
8.00000 0.11464
8.00200 0.04302
8.00400 -0.03970
8.00600 0.00849
8.00800 -0.03613
8.01000 -0.05212
8.01200 -0.07514
8.01400 -0.02503
8.01600 0.06636
8.01800 -0.02454
8.02000 0.02557
8.02200 -0.01910
8.02400 -0.03295
8.02600 -0.03689
8.02800 0.05662
8.03000 0.07632
8.03200 0.01689
8.03400 0.05337
8.03600 0.03922
8.03800 0.01574
8.04000 0.00980
8.04200 -0.01650
8.04400 -0.00279
8.04600 -0.05374
8.04800 0.00743
8.05000 0.04898
8.05200 -0.08420
8.05400 0.02076
8.05600 0.00307
8.05800 0.06258
8.06000 -0.07929
8.06200 -0.01401
8.06400 -0.02427
8.06600 0.00650
8.06800 -0.08271
8.07000 0.05064
8.07200 -0.12154
8.07400 0.03925
8.07600 -0.07342
8.07800 -0.03545
8.08000 0.17901
8.08200 0.06677
8.08400 -0.06493
8.08600 -0.02219
8.08800 0.08450
8.09000 -0.00671
8.09200 -0.00199
8.09400 -0.03291
8.09600 -0.01345
8.09800 0.02454
8.10000 0.10870
8.10200 -0.04621
8.10400 0.01251
8.10600 -0.00236
8.10800 -0.06396
8.11000 0.07359
8.11200 0.07106
8.11400 -0.02982
8.11600 0.05599
8.11800 0.00252
8.12000 -0.08086
8.12200 0.00788
8.12400 -0.09888
8.12600 0.00041
8.12800 0.01207
8.13000 -0.15033
8.13200 0.00060
8.13400 0.04296
8.13600 0.02742
8.13800 -0.02427
8.14000 0.01731
8.14200 -0.03236
8.14400 0.00774
8.14600 0.00959
8.14800 -0.04837
8.15000 -0.03042
8.15200 -0.10560
8.15400 0.00940
8.15600 -0.00535
8.15800 -0.04932
8.16000 -0.03808
8.16200 0.01515
8.16400 0.06005
8.16600 -0.04204
8.16800 -0.06992
8.17000 -0.05394
8.17200 0.09014
8.17400 0.15237
8.17600 -0.06367
8.17800 0.07654
8.18000 0.09025
8.18200 0.02031
8.18400 -0.06424
8.18600 -0.00877
8.18800 -0.04591
8.19000 0.04174
8.19200 0.02764
8.19400 0.01170
8.19600 -0.03518
8.19800 -0.04834
8.20000 -0.00754
8.20200 0.00977
8.20400 -0.12532
8.20600 0.02546
8.20800 -0.02204
8.21000 0.04154
8.21200 -0.01087
8.21400 0.02821
8.21600 -0.01077
8.21800 0.03298
8.22000 0.01017
8.22200 0.06733
8.22400 0.03482
8.22600 0.03759
8.22800 0.07591
8.23000 0.08037
8.23200 0.02681
8.23400 -0.06932
8.23600 -0.01479
8.23800 0.03972
8.24000 0.08115
8.24200 -0.02271
8.24400 -0.12981
8.24600 -0.12009
8.24800 -0.01398
8.25000 0.00165
8.25200 -0.06959
8.25400 0.08001
8.25600 0.07265
8.25800 -0.04896
8.26000 0.03623
8.26200 0.11564
8.26400 -0.02377
8.26600 -0.03705
8.26800 -0.09290
8.27000 0.02481
8.27200 0.04096
8.27400 0.03979
8.27600 0.08835
8.27800 0.03362
8.28000 0.02794
8.28200 -0.01390
8.28400 -0.09484
8.28600 0.08666
8.28800 -0.14825
8.29000 0.03288
8.29200 -0.00209
8.29400 -0.07403
8.29600 -0.15651
8.29800 0.02314
8.30000 0.14079
8.30200 0.00267
8.30400 0.02196
8.30600 -0.03994
8.30800 -0.07894
8.31000 0.08936
8.31200 -0.07407
8.31400 0.10270
8.31600 0.03698
8.31800 -0.01138
8.32000 -0.07776
8.32200 -0.03086
8.32400 0.04440
8.32600 0.04262
8.32800 -0.11657
8.33000 0.09781
8.33200 0.01828
8.33400 0.00383
8.33600 -0.05907
8.33800 -0.07357
8.34000 0.00058
8.34200 0.06538
8.34400 -0.05418
8.34600 0.05554
8.34800 0.02087
8.35000 -0.01399
8.35200 -0.07804
8.35400 -0.07580
8.35600 -0.14294
8.35800 -0.00001
8.36000 -0.06792
8.36200 -0.04357
8.36400 0.07731
8.36600 0.00679
8.36800 -0.02759
8.37000 0.07108
8.37200 -0.01309
8.37400 -0.03850
8.37600 0.04227
8.37800 -0.08001
8.38000 -0.01272
8.38200 -0.00665
8.38400 -0.13109
8.38600 0.00629
8.38800 0.01360
8.39000 0.01304
8.39200 -0.02117
8.39400 0.04347
8.39600 0.07550
8.39800 -0.00904
8.40000 -0.07709
8.40200 -0.02588
8.40400 0.01026
8.40600 0.06726
8.40800 -0.07944
8.41000 0.00643
8.41200 -0.01728
8.41400 -0.06956
8.41600 -0.00082
8.41800 -0.04648
8.42000 -0.06489
8.42200 0.13018
8.42400 0.02901
8.42600 -0.01294
8.42800 0.02033
8.43000 -0.09882
8.43200 0.02889
8.43400 -0.02010
8.43600 0.02821
8.43800 0.08992
8.44000 0.02120
8.44200 -0.00342
8.44400 -0.04313
8.44600 -0.01769
8.44800 0.01659
8.45000 -0.02752
8.45200 -0.00392
8.45400 0.04962
8.45600 -0.01245
8.45800 -0.11974
8.46000 -0.03174
8.46200 -0.00271
8.46400 0.02399
8.46600 0.12221
8.46800 -0.02923
8.47000 -0.00979
8.47200 0.00205
8.47400 0.06427
8.47600 -0.01160
8.47800 0.07105
8.48000 0.03513
8.48200 -0.01602
8.48400 0.16346
8.48600 -0.03990
8.48800 -0.07764
8.49000 0.06380
8.49200 -0.01416
8.49400 -0.06110
8.49600 0.02615
8.49800 0.01596
8.50000 0.07300
8.50200 0.05694
8.50400 0.05822
8.50600 -0.02275
8.50800 -0.06185
8.51000 -0.03615
8.51200 -0.03089
8.51400 -0.00225
8.51600 -0.10899
8.51800 0.05605
8.52000 -0.06086
8.52200 -0.06642
8.52400 0.06793
8.52600 -0.05097
8.52800 -0.02850
8.53000 -0.03110
8.53200 -0.06087
8.53400 0.01661
8.53600 -0.04725
8.53800 -0.02255
8.54000 0.00886
8.54200 -0.00205
8.54400 0.00618
8.54600 0.06803
8.54800 -0.01890
8.55000 -0.06421
8.55200 -0.04425
8.55400 0.05879
8.55600 -0.04228
8.55800 0.05849
8.56000 0.01824
8.56200 -0.01839
8.56400 -0.04949
8.56600 -0.05418
8.56800 0.03215
8.57000 -0.07779
8.57200 0.00162
8.57400 0.01771
8.57600 -0.00728
8.57800 -0.05895
8.58000 0.00716
8.58200 -0.11850
8.58400 -0.03908
8.58600 -0.07154
8.58800 0.08192
8.59000 0.03370
8.59200 0.08923
8.59400 -0.03255
8.59600 -0.02734
8.59800 0.04760
8.60000 -0.03266
8.60200 -0.00685
8.60400 0.08464
8.60600 0.01977
8.60800 0.04419
8.61000 -0.04093
8.61200 0.00629
8.61400 -0.01341
8.61600 0.05382
8.61800 0.03265
8.62000 -0.01253
8.62200 0.02994
8.62400 0.05981
8.62600 -0.01418
8.62800 -0.09878
8.63000 0.04473
8.63200 0.04664
8.63400 0.06450
8.63600 -0.01474
8.63800 -0.10755
8.64000 -0.04274
8.64200 0.01567
8.64400 0.04375
8.64600 -0.07849
8.64800 -0.02897
8.65000 0.06669
8.65200 -0.07760
8.65400 -0.04862
8.65600 0.04789
8.65800 0.00317
8.66000 0.07333
8.66200 -0.05340
8.66400 0.03392
8.66600 -0.02356
8.66800 -0.01275
8.67000 -0.01122
8.67200 0.05608
8.67400 0.09079
8.67600 0.04002
8.67800 -0.08219
8.68000 0.00203
8.68200 0.03849
8.68400 -0.09288
8.68600 -0.00830
8.68800 0.03522
8.69000 -0.06358
8.69200 0.01284
8.69400 0.02978
8.69600 0.00716
8.69800 -0.10292
8.70000 0.04814
8.70200 -0.07859
8.70400 -0.02647
8.70600 0.00667
8.70800 -0.00517
8.71000 0.09883
8.71200 -0.00353
8.71400 0.02889
8.71600 0.04641
8.71800 0.04746
8.72000 -0.04265
8.72200 -0.11805
8.72400 -0.04820
8.72600 -0.07672
8.72800 -0.01718
8.73000 0.08507
8.73200 0.00951
8.73400 -0.01909
8.73600 0.02734
8.73800 -0.01719
8.74000 0.01131
8.74200 0.09910
8.74400 0.05822
8.74600 0.02555
8.74800 -0.05591
8.75000 0.05455
8.75200 0.06935
8.75400 -0.06912
8.75600 -0.05386
8.75800 -0.02650
8.76000 0.01356
8.76200 0.07484
8.76400 0.34507
8.76600 0.85315
8.76800 1.50678
8.77000 1.51559
8.77200 1.01771
8.77400 0.39365
8.77600 0.20328
8.77800 -0.10518
8.78000 0.10839
8.78200 0.05155
8.78400 -0.00660
8.78600 -0.06052
8.78800 -0.01239
8.79000 0.03960
8.79200 -0.10272
8.79400 0.05940
8.79600 0.04775
8.79800 -0.01388
8.80000 0.04998
8.80200 0.05736
8.80400 -0.05598
8.80600 0.00639
8.80800 -0.08671
8.81000 -0.01732
8.81200 -0.13406
8.81400 0.00042
8.81600 0.00058
8.81800 0.01253
8.82000 -0.06402
8.82200 0.08348
8.82400 0.03546
8.82600 -0.06371
8.82800 0.08457
8.83000 0.03231
8.83200 -0.03336
8.83400 0.13528
8.83600 0.01040
8.83800 0.15943
8.84000 0.03184
8.84200 -0.04561
8.84400 0.03840
8.84600 0.05698
8.84800 -0.10899
8.85000 -0.01375
8.85200 0.00356
8.85400 0.10375
8.85600 -0.08536
8.85800 0.04358
8.86000 0.07327
8.86200 -0.03707
8.86400 -0.00589
8.86600 0.01431
8.86800 -0.02900
8.87000 -0.04581
8.87200 0.07056
8.87400 0.02507
8.87600 -0.04262
8.87800 0.02471
8.88000 0.01341
8.88200 -0.01976
8.88400 0.06298
8.88600 -0.02572
8.88800 0.12200
8.89000 0.04088
8.89200 0.02175
8.89400 0.10708
8.89600 0.01540
8.89800 -0.05005
8.90000 -0.04248
8.90200 0.04082
8.90400 0.03854
8.90600 -0.04594
8.90800 0.09053
8.91000 -0.02470
8.91200 0.04370
8.91400 0.06826
8.91600 0.01691
8.91800 0.00351
8.92000 -0.03956
8.92200 0.05529
8.92400 -0.09686
8.92600 -0.02179
8.92800 0.07404
8.93000 -0.05631
8.93200 0.07624
8.93400 -0.07710
8.93600 0.10294
8.93800 0.00892
8.94000 -0.00272
8.94200 0.05446
8.94400 -0.06326
8.94600 0.09684
8.94800 0.04590
8.95000 0.04677
8.95200 0.10159
8.95400 -0.03181
8.95600 -0.04721
8.95800 -0.01367
8.96000 -0.07853
8.96200 0.07185
8.96400 -0.02809
8.96600 0.02781
8.96800 -0.04233
8.97000 -0.03767
8.97200 -0.05155
8.97400 0.05359
8.97600 -0.06916
8.97800 -0.00649
8.98000 0.04476
8.98200 -0.06951
8.98400 0.02260
8.98600 -0.03595
8.98800 -0.08510
8.99000 0.01162
8.99200 -0.05415
8.99400 -0.04618
8.99600 0.05577
8.99800 -0.08834
9.00000 -0.05859
9.00200 -0.00201
9.00400 -0.00185
9.00600 0.02211
9.00800 -0.07160
9.01000 -0.06231
9.01200 0.02056
9.01400 -0.14584
9.01600 -0.00948
9.01800 -0.04062
9.02000 -0.04229
9.02200 -0.05306
9.02400 0.03512
9.02600 -0.02378
9.02800 0.10491
9.03000 -0.04062
9.03200 0.02881
9.03400 -0.03026
9.03600 0.05708
9.03800 0.02269
9.04000 -0.00165
9.04200 0.05289
9.04400 0.04160
9.04600 -0.02272
9.04800 0.06790
9.05000 -0.04432
9.05200 -0.00176
9.05400 0.03750
9.05600 -0.05497
9.05800 0.09103
9.06000 -0.02289
9.06200 -0.07125
9.06400 -0.07979
9.06600 -0.01140
9.06800 0.01173
9.07000 -0.04689
9.07200 0.09291
9.07400 -0.01301
9.07600 -0.06859
9.07800 -0.04926
9.08000 -0.01194
9.08200 -0.03444
9.08400 0.04976
9.08600 -0.03576
9.08800 0.10391
9.09000 0.02829
9.09200 -0.01288
9.09400 0.05275
9.09600 -0.00069
9.09800 0.01646
9.10000 0.08252
9.10200 -0.04798
9.10400 0.04820
9.10600 0.01005
9.10800 -0.05444
9.11000 -0.04961
9.11200 0.09176
9.11400 0.01685
9.11600 -0.02268
9.11800 0.08407
9.12000 -0.05531
9.12200 -0.04121
9.12400 0.04976
9.12600 0.06277
9.12800 -0.00661
9.13000 -0.02680
9.13200 0.02247
9.13400 0.03291
9.13600 0.01078
9.13800 -0.02347
9.14000 -0.04826
9.14200 -0.01566
9.14400 -0.07784
9.14600 0.00101
9.14800 -0.00913
9.15000 0.06339
9.15200 0.01392
9.15400 0.01451
9.15600 -0.06525
9.15800 -0.00318
9.16000 -0.09388
9.16200 0.10516
9.16400 -0.02787
9.16600 -0.00630
9.16800 -0.05516
9.17000 0.05727
9.17200 0.06406
9.17400 -0.00824
9.17600 0.09897
9.17800 0.02317
9.18000 0.07713
9.18200 -0.09579
9.18400 -0.01651
9.18600 -0.04989
9.18800 -0.01325
9.19000 0.00421
9.19200 -0.03180
9.19400 -0.02448
9.19600 -0.00400
9.19800 0.08319
9.20000 -0.01039
9.20200 -0.05725
9.20400 0.03905
9.20600 0.09102
9.20800 0.11380
9.21000 -0.04903
9.21200 0.01080
9.21400 0.07726
9.21600 0.07752
9.21800 -0.04291
9.22000 0.04693
9.22200 -0.01316
9.22400 -0.05867
9.22600 -0.08869
9.22800 0.00020
9.23000 -0.02528
9.23200 0.03292
9.23400 0.04158
9.23600 -0.12444
9.23800 -0.03840
9.24000 -0.05659
9.24200 -0.02899
9.24400 0.05817
9.24600 0.00457
9.24800 -0.00793
9.25000 -0.02811
9.25200 0.05123
9.25400 0.00913
9.25600 -0.01156
9.25800 0.08029
9.26000 0.07429
9.26200 -0.11398
9.26400 -0.05265
9.26600 0.01204
9.26800 -0.04687
9.27000 -0.03462
9.27200 0.03059
9.27400 -0.00407
9.27600 -0.13807
9.27800 0.04195
9.28000 0.02166
9.28200 -0.08084
9.28400 0.01767
9.28600 0.05265
9.28800 0.11619
9.29000 -0.08449
9.29200 -0.00682
9.29400 0.03644
9.29600 -0.05479
9.29800 -0.00259
9.30000 -0.03441
9.30200 0.03845
9.30400 0.08783
9.30600 -0.09066
9.30800 -0.07225
9.31000 -0.09481
9.31200 -0.04850
9.31400 -0.09263
9.31600 -0.08783
9.31800 0.02937
9.32000 -0.00399
9.32200 -0.09725
9.32400 -0.05716
9.32600 0.03317
9.32800 -0.05370
9.33000 -0.05821
9.33200 -0.04453
9.33400 0.05830
9.33600 -0.09939
9.33800 -0.05251
9.34000 0.02913
9.34200 0.07682
9.34400 -0.03804
9.34600 -0.03683
9.34800 0.07521
9.35000 -0.00207
9.35200 -0.03767
9.35400 0.01404
9.35600 -0.01979
9.35800 -0.05170
9.36000 -0.07469
9.36200 0.00828
9.36400 -0.08140
9.36600 -0.07905
9.36800 0.02482
9.37000 0.08992
9.37200 0.01944
9.37400 0.07632
9.37600 -0.03579
9.37800 0.06416
9.38000 -0.01265
9.38200 -0.07557
9.38400 0.01570
9.38600 0.04406
9.38800 0.15944
9.39000 -0.00907
9.39200 -0.07728
9.39400 0.07908
9.39600 -0.07502
9.39800 0.11379
9.40000 0.03403
9.40200 0.07389
9.40400 0.01344
9.40600 -0.00845
9.40800 -0.07860
9.41000 0.02640
9.41200 -0.03393
9.41400 -0.02250
9.41600 -0.02520
9.41800 -0.05163
9.42000 0.03471
9.42200 -0.11162
9.42400 -0.02719
9.42600 -0.00670
9.42800 -0.01976
9.43000 0.09408
9.43200 -0.03928
9.43400 -0.02920
9.43600 0.01022
9.43800 0.01711
9.44000 -0.01565
9.44200 0.08817
9.44400 0.06344
9.44600 -0.02167
9.44800 0.02341
9.45000 -0.04619
9.45200 -0.01932
9.45400 -0.09478
9.45600 -0.06955
9.45800 -0.10303
9.46000 -0.02032
9.46200 0.03175
9.46400 -0.07114
9.46600 -0.10345
9.46800 -0.00857
9.47000 -0.04281
9.47200 -0.06373
9.47400 0.03305
9.47600 0.04866
9.47800 0.06229
9.48000 -0.04172
9.48200 -0.00146
9.48400 0.04694
9.48600 -0.03229
9.48800 -0.04413
9.49000 -0.03673
9.49200 0.07756
9.49400 0.00099
9.49600 -0.03432
9.49800 0.03483
9.50000 0.08851
9.50200 0.03875
9.50400 -0.01381
9.50600 -0.16848
9.50800 -0.00208
9.51000 -0.13596
9.51200 -0.00970
9.51400 -0.02383
9.51600 0.07547
9.51800 -0.02059
9.52000 -0.03889
9.52200 -0.03181
9.52400 -0.03630
9.52600 0.02111
9.52800 0.02579
9.53000 0.00716
9.53200 -0.09757
9.53400 0.14416
9.53600 0.07337
9.53800 -0.00979
9.54000 -0.04135
9.54200 -0.04989
9.54400 0.00490
9.54600 -0.02482
9.54800 0.01641
9.55000 0.05309
9.55200 -0.05055
9.55400 0.08160
9.55600 0.11649
9.55800 -0.04969
9.56000 0.07971
9.56200 0.05871
9.56400 -0.11136
9.56600 0.12512
9.56800 -0.08700
9.57000 0.03859
9.57200 0.13042
9.57400 -0.00279
9.57600 -0.04502
9.57800 -0.07276
9.58000 -0.07267
9.58200 0.01468
9.58400 -0.00270
9.58600 0.11333
9.58800 -0.09901
9.59000 -0.01601
9.59200 -0.05748
9.59400 0.06372
9.59600 -0.02891
9.59800 0.01934
9.60000 -0.04517
9.60200 -0.12576
9.60400 0.03557
9.60600 -0.05941
9.60800 -0.05881
9.61000 -0.01668
9.61200 -0.00240
9.61400 -0.04406
9.61600 0.07606
9.61800 -0.01606
9.62000 0.04496
9.62200 -0.05141
9.62400 -0.03448
9.62600 0.05435
9.62800 -0.08489
9.63000 -0.11936
9.63200 -0.04189
9.63400 -0.05392
9.63600 0.01232
9.63800 0.04434
9.64000 -0.01391
9.64200 0.03456
9.64400 -0.05015
9.64600 -0.08887
9.64800 -0.03542
9.65000 0.05507
9.65200 -0.02371
9.65400 0.05349
9.65600 0.01815
9.65800 -0.01557
9.66000 0.08159
9.66200 0.02010
9.66400 0.12630
9.66600 -0.12563
9.66800 0.01892
9.67000 0.02955
9.67200 -0.02547
9.67400 -0.09994
9.67600 -0.05281
9.67800 0.03597
9.68000 0.09930
9.68200 0.05697
9.68400 0.02982
9.68600 0.19349
9.68800 0.55950
9.69000 1.16264
9.69200 1.59687
9.69400 1.21530
9.69600 0.63995
9.69800 0.21895
9.70000 -0.01761
9.70200 0.09829
9.70400 -0.00484
9.70600 -0.03581
9.70800 -0.06511
9.71000 -0.02230
9.71200 -0.05353
9.71400 -0.00206
9.71600 -0.00208
9.71800 0.00546
9.72000 -0.09302
9.72200 -0.04399
9.72400 0.06444
9.72600 0.03221
9.72800 -0.00102
9.73000 -0.05239
9.73200 0.01113
9.73400 -0.10296
9.73600 -0.04347
9.73800 -0.01105
9.74000 -0.04323
9.74200 -0.04149
9.74400 0.05088
9.74600 0.08004
9.74800 0.06333
9.75000 -0.07530
9.75200 0.05558
9.75400 -0.09539
9.75600 0.07275
9.75800 0.01854
9.76000 0.05876
9.76200 -0.02782
9.76400 -0.02018
9.76600 -0.04750
9.76800 0.09917
9.77000 -0.09945
9.77200 0.06596
9.77400 -0.01158
9.77600 0.13807
9.77800 0.13349
9.78000 -0.02771
9.78200 0.13412
9.78400 -0.15371
9.78600 0.00652
9.78800 -0.06080
9.79000 -0.04558
9.79200 0.06336
9.79400 0.04492
9.79600 0.09470
9.79800 0.08480
9.80000 -0.06746
9.80200 0.02799
9.80400 -0.06451
9.80600 0.06835
9.80800 0.08110
9.81000 0.01778
9.81200 -0.07784
9.81400 -0.01869
9.81600 0.00048
9.81800 0.02247
9.82000 0.03695
9.82200 0.07211
9.82400 -0.02033
9.82600 -0.08396
9.82800 -0.04332
9.83000 -0.08348
9.83200 0.09700
9.83400 -0.05858
9.83600 0.00957
9.83800 0.05915
9.84000 -0.01594
9.84200 -0.03779
9.84400 0.03921
9.84600 -0.00622
9.84800 0.12141
9.85000 0.03175
9.85200 0.00854
9.85400 -0.05822
9.85600 -0.12495
9.85800 0.02512
9.86000 -0.01393
9.86200 -0.02978
9.86400 -0.05028
9.86600 -0.07690
9.86800 0.07252
9.87000 -0.10426
9.87200 -0.05940
9.87400 0.00284
9.87600 0.03420
9.87800 -0.02469
9.88000 -0.13458
9.88200 0.02785
9.88400 -0.05173
9.88600 -0.03052
9.88800 0.02882
9.89000 -0.10186
9.89200 -0.02601
9.89400 0.07771
9.89600 0.02250
9.89800 0.06390
9.90000 -0.04238
9.90200 0.11922
9.90400 0.00803
9.90600 0.12645
9.90800 0.01097
9.91000 0.04727
9.91200 -0.07070
9.91400 -0.04051
9.91600 0.01656
9.91800 0.05171
9.92000 -0.05597
9.92200 0.03522
9.92400 -0.04034
9.92600 0.05963
9.92800 -0.01016
9.93000 -0.03810
9.93200 0.00090
9.93400 -0.03895
9.93600 0.01559
9.93800 0.01282
9.94000 0.09142
9.94200 0.03260
9.94400 0.05512
9.94600 -0.06826
9.94800 0.00214
9.95000 -0.06614
9.95200 -0.04830
9.95400 -0.01253
9.95600 0.06814
9.95800 -0.07900
9.96000 0.02009
9.96200 0.01189
9.96400 0.00361
9.96600 -0.05435
9.96800 -0.09094
9.97000 0.06949
9.97200 -0.00080
9.97400 0.05392
9.97600 0.04048
9.97800 -0.08370
9.98000 -0.12694
9.98200 -0.06019
9.98400 -0.06334
9.98600 -0.02887
9.98800 0.05406
9.99000 0.03267
9.99200 0.08710
9.99400 -0.08264
9.99600 0.00010
9.99800 0.00476
