cas[s]  ekg[mV]
0.00000 -0.06485
0.00200 -0.03626
0.00400 0.04292
0.00600 -0.04588
0.00800 0.02817
0.01000 -0.07869
0.01200 0.10409
0.01400 -0.08392
0.01600 0.02407
0.01800 0.00677
0.02000 0.09275
0.02200 -0.02304
0.02400 -0.02028
0.02600 0.08443
0.02800 0.04912
0.03000 -0.00059
0.03200 0.04329
0.03400 0.06208
0.03600 -0.04108
0.03800 -0.11394
0.04000 -0.04012
0.04200 -0.03239
0.04400 0.03181
0.04600 -0.05122
0.04800 -0.01616
0.05000 0.01339
0.05200 -0.04234
0.05400 -0.06164
0.05600 0.04527
0.05800 0.05948
0.06000 0.04788
0.06200 0.02590
0.06400 0.00969
0.06600 -0.09536
0.06800 0.00860
0.07000 -0.06907
0.07200 -0.05732
0.07400 -0.00459
0.07600 0.05988
0.07800 0.01984
0.08000 -0.08303
0.08200 0.05110
0.08400 -0.05233
0.08600 -0.02318
0.08800 -0.03411
0.09000 -0.06119
0.09200 -0.04127
0.09400 0.02615
0.09600 -0.01842
0.09800 0.03106
0.10000 0.02850
0.10200 -0.07668
0.10400 0.02875
0.10600 -0.05845
0.10800 0.09730
0.11000 0.03331
0.11200 -0.13136
0.11400 0.10091
0.11600 0.02772
0.11800 -0.00626
0.12000 0.00981
0.12200 -0.04515
0.12400 -0.00311
0.12600 0.01135
0.12800 0.04144
0.13000 -0.02045
0.13200 0.01963
0.13400 0.10447
0.13600 -0.02622
0.13800 -0.09795
0.14000 -0.05011
0.14200 0.02777
0.14400 -0.00384
0.14600 -0.02448
0.14800 0.02161
0.15000 -0.01986
0.15200 -0.03570
0.15400 -0.03889
0.15600 -0.06443
0.15800 -0.09408
0.16000 -0.02539
0.16200 0.00024
0.16400 0.00019
0.16600 0.09446
0.16800 0.02374
0.17000 -0.11645
0.17200 0.07025
0.17400 -0.01985
0.17600 0.04769
0.17800 0.01361
0.18000 -0.03040
0.18200 -0.07532
0.18400 0.01217
0.18600 -0.05557
0.18800 0.05688
0.19000 0.00598
0.19200 0.00973
0.19400 -0.07607
0.19600 -0.02071
0.19800 -0.03446
0.20000 -0.06989
0.20200 -0.09428
0.20400 0.11262
0.20600 -0.07496
0.20800 -0.05021
0.21000 -0.09374
0.21200 0.00579
0.21400 -0.02989
0.21600 -0.01087
0.21800 0.04002
0.22000 0.02491
0.22200 -0.04837
0.22400 0.06962
0.22600 0.06515
0.22800 -0.00869
0.23000 0.03236
0.23200 0.04227
0.23400 -0.00093
0.23600 -0.06456
0.23800 0.04037
0.24000 0.00704
0.24200 0.03886
0.24400 -0.13506
0.24600 -0.04658
0.24800 0.02915
0.25000 0.02138
0.25200 0.02631
0.25400 -0.06808
0.25600 0.03379
0.25800 -0.11257
0.26000 0.07074
0.26200 -0.04134
0.26400 0.05225
0.26600 0.03318
0.26800 0.00260
0.27000 -0.00857
0.27200 -0.05120
0.27400 0.03396
0.27600 0.11907
0.27800 0.02437
0.28000 0.01221
0.28200 -0.01950
0.28400 0.02994
0.28600 0.00509
0.28800 0.02044
0.29000 -0.03640
0.29200 -0.00974
0.29400 -0.13465
0.29600 0.03261
0.29800 0.04741
0.30000 -0.00984
0.30200 -0.01504
0.30400 0.01640
0.30600 -0.11309
0.30800 0.04024
0.31000 -0.04200
0.31200 -0.04660
0.31400 -0.08176
0.31600 -0.09966
0.31800 0.08017
0.32000 0.03283
0.32200 0.04936
0.32400 -0.00754
0.32600 -0.00003
0.32800 -0.10529
0.33000 0.01747
0.33200 0.00736
0.33400 0.11611
0.33600 0.04602
0.33800 0.09135
0.34000 0.03325
0.34200 -0.03828
0.34400 -0.11712
0.34600 -0.07301
0.34800 0.06498
0.35000 -0.10267
0.35200 -0.11141
0.35400 0.07044
0.35600 0.00251
0.35800 -0.00887
0.36000 0.02317
0.36200 -0.13910
0.36400 0.01503
0.36600 -0.02743
0.36800 -0.09801
0.37000 0.00436
0.37200 0.00233
0.37400 0.00320
0.37600 0.04341
0.37800 -0.02194
0.38000 -0.02199
0.38200 0.07091
0.38400 0.00245
0.38600 0.00862
0.38800 0.08353
0.39000 0.08044
0.39200 -0.04169
0.39400 0.07249
0.39600 -0.09836
0.39800 -0.06027
0.40000 0.03028
0.40200 0.05131
0.40400 0.01815
0.40600 -0.00100
0.40800 -0.09976
0.41000 -0.07764
0.41200 0.01336
0.41400 -0.04857
0.41600 -0.06499
0.41800 0.03963
0.42000 0.08693
0.42200 0.01492
0.42400 -0.06827
0.42600 -0.02476
0.42800 0.06944
0.43000 0.20538
0.43200 0.08819
0.43400 0.11962
0.43600 0.41201
0.43800 0.91242
0.44000 1.32293
0.44200 1.49837
0.44400 1.08398
0.44600 0.41451
0.44800 0.15310
0.45000 0.01327
0.45200 -0.00938
0.45400 -0.04782
0.45600 -0.02445
0.45800 -0.02452
0.46000 -0.09339
0.46200 0.05007
0.46400 -0.00718
0.46600 -0.05573
0.46800 -0.02404
0.47000 0.02639
0.47200 -0.03449
0.47400 -0.05982
0.47600 -0.01226
0.47800 -0.02063
0.48000 0.05719
0.48200 -0.00795
0.48400 -0.00389
0.48600 0.09765
0.48800 0.00839
0.49000 0.02567
0.49200 -0.02394
0.49400 0.04002
0.49600 0.02754
0.49800 -0.00169
0.50000 -0.03111
0.50200 0.04751
0.50400 0.07755
0.50600 0.03613
0.50800 -0.01575
0.51000 -0.01973
0.51200 -0.11727
0.51400 0.09548
0.51600 0.00601
0.51800 -0.02887
0.52000 -0.13937
0.52200 -0.06824
0.52400 -0.02300
0.52600 0.08505
0.52800 -0.08518
0.53000 -0.00052
0.53200 0.00640
0.53400 -0.00746
0.53600 -0.05201
0.53800 0.02775
0.54000 0.03091
0.54200 -0.03063
0.54400 0.00124
0.54600 0.00265
0.54800 0.12334
0.55000 0.01215
0.55200 0.03236
0.55400 0.12653
0.55600 -0.04717
0.55800 -0.10510
0.56000 -0.03889
0.56200 0.00746
0.56400 -0.02543
0.56600 0.09412
0.56800 -0.05667
0.57000 -0.08864
0.57200 0.06472
0.57400 0.08781
0.57600 -0.00906
0.57800 -0.05964
0.58000 0.08716
0.58200 0.07795
0.58400 -0.06808
0.58600 0.07100
0.58800 -0.06204
0.59000 0.05080
0.59200 -0.03728
0.59400 0.03731
0.59600 0.00464
0.59800 -0.02339
0.60000 0.00562
0.60200 -0.02934
0.60400 0.02705
0.60600 -0.01003
0.60800 0.01336
0.61000 0.04092
0.61200 -0.13533
0.61400 -0.01778
0.61600 -0.01081
0.61800 0.10403
0.62000 -0.06785
0.62200 0.01333
0.62400 -0.00742
0.62600 0.05686
0.62800 0.13016
0.63000 0.12510
0.63200 0.01345
0.63400 -0.02144
0.63600 -0.01031
0.63800 0.07230
0.64000 -0.02920
0.64200 0.02747
0.64400 -0.02256
0.64600 0.11684
0.64800 0.02375
0.65000 0.03373
0.65200 0.10333
0.65400 0.07218
0.65600 -0.01023
0.65800 0.02795
0.66000 0.08048
0.66200 0.03197
0.66400 -0.02295
0.66600 -0.04809
0.66800 0.00743
0.67000 0.00473
0.67200 -0.00890
0.67400 -0.05571
0.67600 -0.09470
0.67800 0.01575
0.68000 -0.04119
0.68200 -0.08619
0.68400 0.00123
0.68600 0.02391
0.68800 -0.01683
0.69000 0.05813
0.69200 -0.00575
0.69400 0.04942
0.69600 0.00048
0.69800 0.05256
0.70000 0.05763
0.70200 0.08131
0.70400 0.00001
0.70600 0.03385
0.70800 0.00143
0.71000 0.00953
0.71200 -0.02467
0.71400 -0.01086
0.71600 0.00992
0.71800 -0.00465
0.72000 -0.03399
0.72200 0.02167
0.72400 0.08303
0.72600 0.06336
0.72800 -0.01731
0.73000 0.11029
0.73200 0.04808
0.73400 0.00932
0.73600 -0.07613
0.73800 -0.00341
0.74000 -0.02588
0.74200 0.00554
0.74400 -0.02896
0.74600 -0.09906
0.74800 0.00287
0.75000 -0.01310
0.75200 -0.01386
0.75400 -0.00498
0.75600 -0.00649
0.75800 0.00888
0.76000 0.00267
0.76200 -0.02909
0.76400 -0.07778
0.76600 0.05923
0.76800 -0.04626
0.77000 -0.08888
0.77200 -0.02843
0.77400 0.04125
0.77600 0.01076
0.77800 -0.04107
0.78000 0.09078
0.78200 -0.00000
0.78400 -0.01318
0.78600 -0.01482
0.78800 -0.01569
0.79000 -0.07439
0.79200 -0.03928
0.79400 0.03418
0.79600 -0.03813
0.79800 0.02284
0.80000 0.03796
0.80200 -0.07240
0.80400 -0.01922
0.80600 0.05901
0.80800 0.07433
0.81000 -0.09194
0.81200 0.07170
0.81400 0.04051
0.81600 -0.01541
0.81800 0.07271
0.82000 -0.00384
0.82200 0.01892
0.82400 0.01881
0.82600 -0.02510
0.82800 -0.01844
0.83000 0.04112
0.83200 -0.08458
0.83400 0.01304
0.83600 0.01432
0.83800 0.09217
0.84000 -0.08397
0.84200 0.14833
0.84400 0.04922
0.84600 0.01220
0.84800 0.00016
0.85000 0.01064
0.85200 0.06212
0.85400 -0.05785
0.85600 -0.06343
0.85800 0.08614
0.86000 0.08843
0.86200 0.02757
0.86400 0.00405
0.86600 -0.03487
0.86800 0.03843
0.87000 -0.03141
0.87200 -0.12798
0.87400 -0.07173
0.87600 -0.01724
0.87800 0.01510
0.88000 0.03095
0.88200 0.01745
0.88400 -0.07579
0.88600 -0.15584
0.88800 0.11726
0.89000 0.00443
0.89200 -0.01708
0.89400 0.01506
0.89600 0.05889
0.89800 -0.02475
0.90000 -0.06374
0.90200 -0.04256
0.90400 0.05541
0.90600 0.11653
0.90800 -0.07490
0.91000 0.01429
0.91200 -0.04772
0.91400 -0.10430
0.91600 0.08758
0.91800 0.03288
0.92000 -0.00722
0.92200 -0.01179
0.92400 0.14114
0.92600 0.07963
0.92800 -0.01630
0.93000 -0.03367
0.93200 0.02090
0.93400 0.08974
0.93600 -0.02506
0.93800 0.01254
0.94000 0.04253
0.94200 0.08268
0.94400 -0.01840
0.94600 -0.09499
0.94800 -0.07941
0.95000 0.05588
0.95200 0.02825
0.95400 -0.02942
0.95600 0.01291
0.95800 0.00504
0.96000 -0.07090
0.96200 -0.01804
0.96400 0.04425
0.96600 -0.01294
0.96800 0.12108
0.97000 0.03768
0.97200 0.06664
0.97400 -0.03109
0.97600 0.06521
0.97800 -0.12099
0.98000 -0.04017
0.98200 0.01459
0.98400 -0.10244
0.98600 -0.04104
0.98800 -0.05609
0.99000 -0.04199
0.99200 0.04245
0.99400 -0.03510
0.99600 -0.02281
0.99800 -0.03536
1.00000 0.07311
1.00200 -0.00169
1.00400 0.08241
1.00600 -0.02714
1.00800 0.06751
1.01000 -0.03983
1.01200 0.02311
1.01400 0.08571
1.01600 -0.00640
1.01800 -0.11776
1.02000 -0.00500
1.02200 -0.00970
1.02400 -0.05345
1.02600 0.04047
1.02800 -0.12303
1.03000 0.01131
1.03200 0.00690
1.03400 0.06322
1.03600 -0.02650
1.03800 -0.08922
1.04000 -0.05661
1.04200 -0.01344
1.04400 -0.10444
1.04600 0.04207
1.04800 0.04085
1.05000 0.01203
1.05200 -0.07115
1.05400 0.03435
1.05600 0.11609
1.05800 -0.12734
1.06000 0.15098
1.06200 -0.04352
1.06400 -0.10168
1.06600 -0.01372
1.06800 0.01716
1.07000 -0.09980
1.07200 0.03091
1.07400 0.00023
1.07600 -0.09303
1.07800 -0.01565
1.08000 0.04556
1.08200 -0.00270
1.08400 0.08649
1.08600 -0.02196
1.08800 0.05929
1.09000 0.10240
1.09200 0.05276
1.09400 0.01156
1.09600 -0.05222
1.09800 0.04103
1.10000 0.03611
1.10200 0.03356
1.10400 0.06511
1.10600 -0.05055
1.10800 0.01178
1.11000 0.06749
1.11200 0.04838
1.11400 -0.05061
1.11600 0.08124
1.11800 -0.07277
1.12000 0.02628
1.12200 -0.06243
1.12400 -0.00980
1.12600 0.07541
1.12800 0.03504
1.13000 0.02066
1.13200 -0.03631
1.13400 0.02821
1.13600 -0.03716
1.13800 0.09350
1.14000 0.02331
1.14200 0.01597
1.14400 -0.02825
1.14600 0.07699
1.14800 0.03903
1.15000 0.04639
1.15200 -0.05549
1.15400 0.05672
1.15600 -0.06816
1.15800 0.04174
1.16000 0.04480
1.16200 0.06983
1.16400 -0.04455
1.16600 0.02335
1.16800 0.05434
1.17000 -0.00955
1.17200 0.00173
1.17400 0.04598
1.17600 -0.01073
1.17800 -0.00274
1.18000 0.02364
1.18200 0.00578
1.18400 0.03764
1.18600 0.05214
1.18800 0.12378
1.19000 -0.08535
1.19200 0.01493
1.19400 0.06420
1.19600 0.03660
1.19800 0.03007
1.20000 -0.00828
1.20200 -0.03101
1.20400 0.11890
1.20600 -0.07251
1.20800 -0.05256
1.21000 0.06061
1.21200 0.04978
1.21400 0.05248
1.21600 -0.03184
1.21800 -0.02277
1.22000 0.01381
1.22200 -0.04091
1.22400 -0.04686
1.22600 -0.01779
1.22800 0.09135
1.23000 -0.04100
1.23200 0.04899
1.23400 -0.01315
1.23600 0.05046
1.23800 -0.06821
1.24000 -0.00137
1.24200 0.00309
1.24400 -0.07119
1.24600 -0.01294
1.24800 -0.07911
1.25000 -0.01912
1.25200 0.05648
1.25400 -0.00877
1.25600 -0.04734
1.25800 0.04678
1.26000 -0.01299
1.26200 0.01996
1.26400 -0.00199
1.26600 -0.05095
1.26800 0.04447
1.27000 -0.07469
1.27200 0.04810
1.27400 0.05615
1.27600 -0.00940
1.27800 -0.00557
1.28000 0.04576
1.28200 0.10816
1.28400 0.00656
1.28600 0.04107
1.28800 0.04544
1.29000 -0.01123
1.29200 -0.03713
1.29400 -0.01861
1.29600 0.07592
1.29800 0.00022
1.30000 0.05373
1.30200 -0.02529
1.30400 0.04552
1.30600 -0.13841
1.30800 0.01820
1.31000 0.03035
1.31200 0.04994
1.31400 0.03613
1.31600 0.13599
1.31800 0.31945
1.32000 0.66418
1.32200 1.40052
1.32400 1.43526
1.32600 1.17753
1.32800 0.54158
1.33000 0.21326
1.33200 0.14609
1.33400 -0.09471
1.33600 -0.02856
1.33800 0.10449
1.34000 0.06020
1.34200 0.01485
1.34400 -0.08075
1.34600 -0.11425
1.34800 -0.04677
1.35000 -0.06006
1.35200 0.09344
1.35400 -0.07297
1.35600 -0.01250
1.35800 0.00895
1.36000 0.06146
1.36200 0.01965
1.36400 0.06211
1.36600 -0.08493
1.36800 -0.05824
1.37000 -0.04841
1.37200 0.10761
1.37400 0.01551
1.37600 -0.04856
1.37800 0.01852
1.38000 0.06286
1.38200 0.05313
1.38400 0.07951
1.38600 -0.01735
1.38800 0.03793
1.39000 -0.04152
1.39200 0.13008
1.39400 0.04884
1.39600 -0.03337
1.39800 0.07787
1.40000 -0.01696
1.40200 -0.10844
1.40400 -0.05203
1.40600 0.02781
1.40800 0.05252
1.41000 -0.01454
1.41200 0.00098
1.41400 -0.00665
1.41600 -0.00746
1.41800 0.01081
1.42000 0.08573
1.42200 -0.09498
1.42400 0.11638
1.42600 -0.07943
1.42800 0.00749
1.43000 -0.06355
1.43200 -0.02657
1.43400 0.08785
1.43600 0.01867
1.43800 0.00497
1.44000 0.07723
1.44200 0.02256
1.44400 -0.00895
1.44600 -0.10324
1.44800 0.02033
1.45000 -0.04244
1.45200 0.00908
1.45400 0.03208
1.45600 0.03229
1.45800 0.08211
1.46000 -0.01242
1.46200 -0.00040
1.46400 -0.06016
1.46600 0.05153
1.46800 0.06946
1.47000 0.03002
1.47200 -0.04550
1.47400 -0.01618
1.47600 0.02066
1.47800 0.00154
1.48000 -0.08184
1.48200 -0.11442
1.48400 -0.06289
1.48600 0.01022
1.48800 -0.02199
1.49000 0.06397
1.49200 -0.16443
1.49400 -0.02298
1.49600 -0.03575
1.49800 -0.08513
1.50000 -0.04597
1.50200 -0.01793
1.50400 0.10311
1.50600 -0.07306
1.50800 0.06738
1.51000 0.09035
1.51200 0.05594
1.51400 0.07364
1.51600 -0.03610
1.51800 0.05738
1.52000 0.01732
1.52200 -0.02914
1.52400 0.03005
1.52600 0.02802
1.52800 -0.00331
1.53000 0.01987
1.53200 -0.06622
1.53400 0.01439
1.53600 0.05054
1.53800 -0.01721
1.54000 -0.11577
1.54200 -0.03898
1.54400 -0.10702
1.54600 -0.12663
1.54800 0.00477
1.55000 0.01562
1.55200 -0.10447
1.55400 0.01003
1.55600 -0.02941
1.55800 -0.01030
1.56000 -0.03219
1.56200 0.06145
1.56400 0.01061
1.56600 -0.03481
1.56800 0.02248
1.57000 -0.05548
1.57200 0.04745
1.57400 0.05972
1.57600 -0.01557
1.57800 0.01787
1.58000 0.01432
1.58200 -0.04818
1.58400 -0.06281
1.58600 -0.08584
1.58800 0.06880
1.59000 -0.02437
1.59200 0.04873
1.59400 0.06954
1.59600 0.00978
1.59800 -0.03988
1.60000 0.09059
1.60200 -0.05068
1.60400 0.00033
1.60600 -0.00369
1.60800 -0.02100
1.61000 0.01120
1.61200 -0.00815
1.61400 0.07416
1.61600 0.05661
1.61800 0.01772
1.62000 -0.05761
1.62200 0.02997
1.62400 0.08528
1.62600 -0.03017
1.62800 -0.05655
1.63000 -0.02307
1.63200 -0.07156
1.63400 0.03743
1.63600 0.00628
1.63800 -0.04593
1.64000 0.07009
1.64200 -0.01322
1.64400 0.05376
1.64600 0.01658
1.64800 -0.00569
1.65000 -0.03141
1.65200 -0.02995
1.65400 0.01052
1.65600 0.04824
1.65800 -0.04217
1.66000 0.04767
1.66200 0.01675
1.66400 -0.09412
1.66600 -0.14192
1.66800 -0.07184
1.67000 -0.03867
1.67200 0.01423
1.67400 0.02815
1.67600 -0.00776
1.67800 -0.04720
1.68000 -0.10081
1.68200 0.02199
1.68400 -0.02847
1.68600 -0.04709
1.68800 -0.08181
1.69000 -0.04043
1.69200 -0.07545
1.69400 -0.17112
1.69600 -0.06764
1.69800 -0.04565
1.70000 -0.06734
1.70200 -0.09646
1.70400 -0.01919
1.70600 -0.03300
1.70800 -0.00445
1.71000 0.04062
1.71200 0.09784
1.71400 -0.01161
1.71600 0.00262
1.71800 -0.05192
1.72000 0.00435
1.72200 -0.13080
1.72400 -0.00577
1.72600 0.05488
1.72800 0.01151
1.73000 0.06037
1.73200 0.00456
1.73400 0.05480
1.73600 -0.11024
1.73800 0.07750
1.74000 -0.08202
1.74200 -0.02787
1.74400 -0.11620
1.74600 0.07127
1.74800 -0.09227
1.75000 0.05186
1.75200 -0.06985
1.75400 -0.09990
1.75600 -0.03250
1.75800 -0.10315
1.76000 -0.06090
1.76200 -0.01518
1.76400 0.02917
1.76600 -0.03024
1.76800 -0.04817
1.77000 0.00747
1.77200 -0.02947
1.77400 -0.06951
1.77600 -0.07477
1.77800 0.06899
1.78000 -0.01618
1.78200 -0.08112
1.78400 0.14819
1.78600 -0.07716
1.78800 -0.10281
1.79000 0.01486
1.79200 -0.01707
1.79400 0.08765
1.79600 -0.03313
1.79800 -0.05793
1.80000 -0.02862
1.80200 -0.01738
1.80400 -0.01499
1.80600 0.09247
1.80800 0.01797
1.81000 0.05621
1.81200 -0.04624
1.81400 0.00449
1.81600 -0.02154
1.81800 -0.08798
1.82000 -0.03961
1.82200 -0.00641
1.82400 -0.06793
1.82600 0.07416
1.82800 0.09455
1.83000 -0.05526
1.83200 -0.06296
1.83400 0.06314
1.83600 0.05013
1.83800 -0.03062
1.84000 -0.04428
1.84200 -0.03738
1.84400 -0.03167
1.84600 0.02227
1.84800 -0.04050
1.85000 -0.03032
1.85200 -0.05536
1.85400 0.04812
1.85600 -0.08230
1.85800 0.04603
1.86000 0.05739
1.86200 -0.01670
1.86400 0.00083
1.86600 0.06666
1.86800 0.03425
1.87000 -0.03131
1.87200 -0.04267
1.87400 0.09656
1.87600 -0.08531
1.87800 0.01544
1.88000 0.00164
1.88200 -0.04729
1.88400 -0.06722
1.88600 0.02185
1.88800 -0.05942
1.89000 0.00550
1.89200 0.00534
1.89400 0.00857
1.89600 -0.02577
1.89800 -0.12134
1.90000 0.02394
1.90200 -0.04655
1.90400 0.19052
1.90600 -0.01665
1.90800 0.04652
1.91000 -0.09003
1.91200 -0.02364
1.91400 -0.05463
1.91600 -0.07283
1.91800 -0.10129
1.92000 -0.02400
1.92200 -0.14682
1.92400 -0.01301
1.92600 0.07666
1.92800 -0.01005
1.93000 0.04291
1.93200 -0.03915
1.93400 0.00631
1.93600 0.15874
1.93800 -0.01330
1.94000 0.01394
1.94200 -0.00963
1.94400 -0.02519
1.94600 -0.03969
1.94800 0.07018
1.95000 -0.09097
1.95200 0.05018
1.95400 -0.01791
1.95600 -0.07831
1.95800 -0.00429
1.96000 0.03391
1.96200 -0.00508
1.96400 0.08745
1.96600 0.02688
1.96800 -0.00452
1.97000 0.00690
1.97200 0.03024
1.97400 0.01609
1.97600 0.09059
1.97800 -0.00278
1.98000 0.03976
1.98200 0.10591
1.98400 0.02734
1.98600 -0.07609
1.98800 -0.03876
1.99000 0.09676
1.99200 0.11248
1.99400 0.09224
1.99600 0.00596
1.99800 -0.03299
2.00000 -0.00378
2.00200 0.00537
2.00400 -0.01942
2.00600 -0.01465
2.00800 -0.07306
2.01000 0.01584
2.01200 -0.00358
2.01400 0.07232
2.01600 0.00469
2.01800 0.02216
2.02000 0.02968
2.02200 0.02570
2.02400 -0.04847
2.02600 -0.10283
2.02800 -0.06272
2.03000 0.09155
2.03200 -0.01854
2.03400 -0.00816
2.03600 0.04137
2.03800 -0.05534
2.04000 -0.09069
2.04200 0.03606
2.04400 0.04051
2.04600 -0.06438
2.04800 0.05674
2.05000 0.03034
2.05200 -0.01877
2.05400 -0.07770
2.05600 -0.00513
2.05800 0.08257
2.06000 -0.01999
2.06200 0.08720
2.06400 0.06038
2.06600 -0.05443
2.06800 -0.03107
2.07000 -0.02111
2.07200 0.04115
2.07400 -0.07530
2.07600 -0.13229
2.07800 0.01606
2.08000 0.01618
2.08200 -0.01899
2.08400 0.13580
2.08600 0.00945
2.08800 0.04283
2.09000 -0.04606
2.09200 -0.01047
2.09400 0.03374
2.09600 0.05207
2.09800 -0.00238
2.10000 -0.01903
2.10200 -0.03434
2.10400 -0.02582
2.10600 -0.00291
2.10800 -0.01014
2.11000 0.06113
2.11200 0.03568
2.11400 -0.01547
2.11600 -0.00381
2.11800 0.08820
2.12000 -0.11371
2.12200 -0.04894
2.12400 0.00990
2.12600 -0.05816
2.12800 -0.08115
2.13000 0.07173
2.13200 -0.15330
2.13400 0.04393
2.13600 -0.03432
2.13800 -0.04241
2.14000 -0.07170
2.14200 0.03572
2.14400 -0.01973
2.14600 -0.03917
2.14800 -0.03038
2.15000 0.01497
2.15200 0.09625
2.15400 -0.03176
2.15600 -0.04928
2.15800 -0.19510
2.16000 -0.07881
2.16200 -0.01098
2.16400 0.07243
2.16600 -0.01044
2.16800 0.08527
2.17000 0.08590
2.17200 -0.03909
2.17400 0.02506
2.17600 -0.10071
2.17800 0.04491
2.18000 0.00620
2.18200 0.06517
2.18400 -0.02727
2.18600 -0.01960
2.18800 -0.14324
2.19000 -0.00150
2.19200 -0.05815
2.19400 0.01671
2.19600 0.09130
2.19800 0.09656
2.20000 0.18852
2.20200 0.66487
2.20400 1.28498
2.20600 1.58083
2.20800 1.16219
2.21000 0.51600
2.21200 0.00075
2.21400 0.09793
2.21600 0.02320
2.21800 -0.01642
2.22000 0.01180
2.22200 0.01820
2.22400 -0.01177
2.22600 0.05403
2.22800 -0.01782
2.23000 0.11144
2.23200 0.13897
2.23400 -0.07896
2.23600 0.00231
2.23800 -0.02700
2.24000 -0.07711
2.24200 -0.02231
2.24400 0.12551
2.24600 -0.08454
2.24800 0.03712
2.25000 -0.02104
2.25200 0.02874
2.25400 -0.09919
2.25600 0.01537
2.25800 -0.00255
2.26000 -0.02304
2.26200 -0.02105
2.26400 -0.00884
2.26600 0.00549
2.26800 0.02661
2.27000 -0.16727
2.27200 -0.11291
2.27400 0.00661
2.27600 -0.03794
2.27800 0.07904
2.28000 -0.02557
2.28200 0.02567
2.28400 0.06559
2.28600 0.11963
2.28800 -0.09515
2.29000 -0.03634
2.29200 -0.08845
2.29400 -0.07649
2.29600 0.00417
2.29800 0.11241
2.30000 0.00766
2.30200 0.02023
2.30400 -0.05746
2.30600 0.01565
2.30800 -0.06806
2.31000 -0.02385
2.31200 -0.06440
2.31400 -0.07928
2.31600 0.04155
2.31800 -0.10657
2.32000 -0.02330
2.32200 -0.01903
2.32400 -0.11162
2.32600 -0.03714
2.32800 0.07102
2.33000 0.13668
2.33200 -0.00380
2.33400 0.07746
2.33600 0.10531
2.33800 0.01690
2.34000 0.01282
2.34200 0.12179
2.34400 -0.11426
2.34600 0.00370
2.34800 -0.01224
2.35000 0.05014
2.35200 0.04410
2.35400 -0.04191
2.35600 -0.06088
2.35800 0.04918
2.36000 0.02904
2.36200 -0.04041
2.36400 0.01010
2.36600 -0.05509
2.36800 0.03012
2.37000 0.01339
2.37200 0.03889
2.37400 -0.09038
2.37600 0.09392
2.37800 -0.08419
2.38000 -0.02595
2.38200 -0.05645
2.38400 -0.05847
2.38600 -0.06277
2.38800 0.10393
2.39000 0.01622
2.39200 -0.04517
2.39400 -0.01084
2.39600 0.09795
2.39800 0.09756
2.40000 0.01958
2.40200 -0.08118
2.40400 0.02072
2.40600 0.03027
2.40800 0.04457
2.41000 0.13157
2.41200 0.01425
2.41400 0.03055
2.41600 -0.03117
2.41800 -0.06521
2.42000 -0.06307
2.42200 0.00948
2.42400 -0.06741
2.42600 0.09638
2.42800 0.02549
2.43000 -0.00081
2.43200 -0.00063
2.43400 -0.00893
2.43600 -0.01608
2.43800 0.03237
2.44000 0.00450
2.44200 0.04495
2.44400 0.03722
2.44600 0.03340
2.44800 0.01030
2.45000 -0.00089
2.45200 0.02864
2.45400 -0.00085
2.45600 -0.07475
2.45800 0.02028
2.46000 -0.04040
2.46200 0.01684
2.46400 -0.05365
2.46600 -0.07910
2.46800 -0.04682
2.47000 -0.11899
2.47200 -0.01798
2.47400 -0.02695
2.47600 0.03068
2.47800 0.01763
2.48000 0.10039
2.48200 0.03090
2.48400 0.00069
2.48600 0.02540
2.48800 -0.00129
2.49000 -0.03107
2.49200 0.11144
2.49400 0.00751
2.49600 -0.05333
2.49800 -0.03873
2.50000 0.12571
2.50200 0.00604
2.50400 -0.03075
2.50600 0.00348
2.50800 0.04126
2.51000 -0.02555
2.51200 -0.01466
2.51400 0.05682
2.51600 0.05566
2.51800 -0.05976
2.52000 -0.02216
2.52200 0.01332
2.52400 0.01404
2.52600 -0.06250
2.52800 -0.00204
2.53000 -0.02824
2.53200 0.00573
2.53400 0.13379
2.53600 0.00316
2.53800 -0.04204
2.54000 0.02237
2.54200 0.04978
2.54400 -0.00488
2.54600 0.04643
2.54800 -0.00255
2.55000 -0.00582
2.55200 -0.04334
2.55400 -0.01128
2.55600 0.00302
2.55800 0.09572
2.56000 0.06972
2.56200 0.00110
2.56400 0.02614
2.56600 0.10033
2.56800 0.06541
2.57000 -0.01068
2.57200 -0.00841
2.57400 -0.03246
2.57600 0.05241
2.57800 0.02423
2.58000 -0.07066
2.58200 0.16105
2.58400 0.02424
2.58600 -0.06271
2.58800 -0.02023
2.59000 0.08112
2.59200 -0.03956
2.59400 0.00533
2.59600 -0.01143
2.59800 0.01875
2.60000 -0.03562
2.60200 0.01509
2.60400 -0.03077
2.60600 -0.09571
2.60800 0.07610
2.61000 -0.00564
2.61200 0.03565
2.61400 0.06171
2.61600 0.00895
2.61800 -0.03995
2.62000 0.07675
2.62200 0.02757
2.62400 -0.02067
2.62600 -0.05608
2.62800 0.05406
2.63000 0.00445
2.63200 -0.08537
2.63400 -0.01452
2.63600 0.01512
2.63800 0.05566
2.64000 -0.01568
2.64200 0.01827
2.64400 -0.01360
2.64600 0.06326
2.64800 0.01814
2.65000 -0.07049
2.65200 0.07844
2.65400 -0.06081
2.65600 0.05844
2.65800 0.03989
2.66000 -0.01466
2.66200 0.03641
2.66400 -0.07204
2.66600 -0.01307
2.66800 -0.01062
2.67000 0.00272
2.67200 -0.05303
2.67400 0.11011
2.67600 0.04360
2.67800 -0.00596
2.68000 0.12175
2.68200 0.10853
2.68400 -0.04976
2.68600 -0.05253
2.68800 0.05468
2.69000 0.01580
2.69200 0.05870
2.69400 -0.04185
2.69600 -0.04455
2.69800 -0.00633
2.70000 0.03889
2.70200 -0.01512
2.70400 0.08141
2.70600 -0.05434
2.70800 0.05686
2.71000 -0.03121
2.71200 0.05960
2.71400 0.04306
2.71600 -0.03883
2.71800 -0.02425
2.72000 -0.04949
2.72200 0.03805
2.72400 -0.05156
2.72600 -0.04486
2.72800 -0.00027
2.73000 0.04963
2.73200 0.02879
2.73400 0.00658
2.73600 -0.12747
2.73800 -0.03214
2.74000 -0.00009
2.74200 0.07543
2.74400 -0.00538
2.74600 -0.01582
2.74800 -0.05643
2.75000 -0.00025
2.75200 -0.03548
2.75400 0.08192
2.75600 0.08775
2.75800 -0.02896
2.76000 -0.00848
2.76200 -0.07117
2.76400 -0.02823
2.76600 -0.09440
2.76800 0.05765
2.77000 -0.02175
2.77200 -0.07996
2.77400 -0.00556
2.77600 0.00904
2.77800 0.05125
2.78000 0.00520
2.78200 0.05556
2.78400 0.03043
2.78600 -0.03392
2.78800 -0.00607
2.79000 0.08017
2.79200 0.14820
2.79400 -0.05528
2.79600 -0.06787
2.79800 0.09088
2.80000 0.11446
2.80200 0.03153
2.80400 0.08285
2.80600 0.00270
2.80800 0.03351
2.81000 0.02221
2.81200 -0.00842
2.81400 0.02059
2.81600 -0.06924
2.81800 0.09179
2.82000 0.06636
2.82200 -0.00300
2.82400 -0.00893
2.82600 -0.00748
2.82800 0.04306
2.83000 -0.02081
2.83200 -0.07665
2.83400 0.01347
2.83600 -0.01391
2.83800 0.03865
2.84000 0.00769
2.84200 -0.05145
2.84400 -0.03419
2.84600 -0.01141
2.84800 -0.03907
2.85000 -0.02957
2.85200 0.03997
2.85400 0.02072
2.85600 0.02981
2.85800 -0.09782
2.86000 0.04661
2.86200 0.03613
2.86400 -0.03897
2.86600 -0.15834
2.86800 0.14475
2.87000 -0.05197
2.87200 -0.08577
2.87400 -0.04049
2.87600 -0.00496
2.87800 -0.00527
2.88000 0.01855
2.88200 0.06565
2.88400 -0.01853
2.88600 0.00979
2.88800 -0.04546
2.89000 -0.01778
2.89200 -0.06748
2.89400 -0.05443
2.89600 0.10886
2.89800 -0.03654
2.90000 0.03438
2.90200 0.11212
2.90400 0.05028
2.90600 0.04748
2.90800 -0.00189
2.91000 0.04893
2.91200 -0.03039
2.91400 0.13338
2.91600 -0.08010
2.91800 -0.06390
2.92000 0.06099
2.92200 0.04134
2.92400 -0.08314
2.92600 0.07592
2.92800 -0.00090
2.93000 0.05222
2.93200 -0.09437
2.93400 0.01319
2.93600 0.05281
2.93800 -0.11752
2.94000 -0.01963
2.94200 0.02567
2.94400 -0.02233
2.94600 -0.12679
2.94800 0.10023
2.95000 -0.01214
2.95200 -0.05512
2.95400 0.00282
2.95600 -0.04261
2.95800 0.05392
2.96000 0.01733
2.96200 0.04981
2.96400 -0.00038
2.96600 -0.04644
2.96800 0.08308
2.97000 -0.03808
2.97200 0.06122
2.97400 0.03774
2.97600 -0.08998
2.97800 -0.05908
2.98000 0.01361
2.98200 0.00406
2.98400 -0.14584
2.98600 0.07614
2.98800 0.05203
2.99000 -0.01867
2.99200 -0.13151
2.99400 0.02529
2.99600 -0.09874
2.99800 -0.03241
3.00000 -0.06470
3.00200 -0.01362
3.00400 -0.05334
3.00600 -0.02396
3.00800 -0.03184
3.01000 -0.09220
3.01200 -0.06826
3.01400 0.07643
3.01600 0.03719
3.01800 0.11656
3.02000 0.06738
3.02200 0.06548
3.02400 0.06432
3.02600 -0.00946
3.02800 0.05370
3.03000 0.00640
3.03200 -0.05568
3.03400 -0.05629
3.03600 0.04995
3.03800 0.08921
3.04000 -0.05066
3.04200 -0.01125
3.04400 -0.03305
3.04600 -0.10158
3.04800 0.07652
3.05000 -0.01709
3.05200 0.08265
3.05400 0.10470
3.05600 -0.03030
3.05800 -0.04783
3.06000 0.09014
3.06200 0.01838
3.06400 0.08449
3.06600 -0.00926
3.06800 -0.00997
3.07000 -0.07840
3.07200 -0.04437
3.07400 -0.00540
3.07600 -0.03751
3.07800 -0.07714
3.08000 -0.05258
3.08200 0.11237
3.08400 0.49227
3.08600 1.21953
3.08800 1.38859
3.09000 1.20926
3.09200 0.65436
3.09400 0.08922
3.09600 0.00304
3.09800 -0.08886
3.10000 -0.09401
3.10200 -0.00703
3.10400 -0.20891
3.10600 0.06155
3.10800 0.01481
3.11000 -0.04996
3.11200 -0.00275
3.11400 -0.04131
3.11600 -0.02700
3.11800 -0.08084
3.12000 -0.05094
3.12200 -0.05910
3.12400 -0.05452
3.12600 0.05432
3.12800 0.00596
3.13000 -0.04677
3.13200 -0.04569
3.13400 0.05021
3.13600 -0.08842
3.13800 -0.05026
3.14000 -0.00184
3.14200 -0.12283
3.14400 0.08468
3.14600 -0.06668
3.14800 -0.04893
3.15000 -0.04951
3.15200 0.03553
3.15400 -0.05026
3.15600 0.05999
3.15800 -0.08727
3.16000 0.09301
3.16200 0.08469
3.16400 0.05161
3.16600 0.01803
3.16800 -0.06730
3.17000 -0.09147
3.17200 0.03072
3.17400 -0.00915
3.17600 0.02193
3.17800 -0.01128
3.18000 0.20029
3.18200 0.06373
3.18400 -0.00882
3.18600 0.01830
3.18800 0.02508
3.19000 0.01689
3.19200 -0.04765
3.19400 -0.05221
3.19600 0.01409
3.19800 0.04516
3.20000 0.00978
3.20200 -0.04665
3.20400 -0.04812
3.20600 -0.03702
3.20800 0.09096
3.21000 -0.07054
3.21200 -0.09749
3.21400 -0.01720
3.21600 -0.02519
3.21800 0.01740
3.22000 0.06012
3.22200 0.06233
3.22400 -0.00881
3.22600 -0.03000
3.22800 -0.07100
3.23000 0.02305
3.23200 -0.04240
3.23400 0.04725
3.23600 -0.03284
3.23800 0.04655
3.24000 0.06412
3.24200 0.02797
3.24400 -0.01729
3.24600 0.12568
3.24800 0.06454
3.25000 -0.08413
3.25200 -0.04274
3.25400 0.06604
3.25600 -0.01402
3.25800 -0.00146
3.26000 0.08947
3.26200 -0.06186
3.26400 -0.02339
3.26600 0.07194
3.26800 -0.04183
3.27000 -0.02875
3.27200 0.07321
3.27400 0.04626
3.27600 0.04851
3.27800 0.09516
3.28000 -0.05482
3.28200 0.11410
3.28400 0.07914
3.28600 -0.06398
3.28800 -0.08997
3.29000 -0.15266
3.29200 0.05020
3.29400 0.02436
3.29600 -0.00444
3.29800 0.00745
3.30000 -0.06004
3.30200 -0.01485
3.30400 -0.07225
3.30600 0.05242
3.30800 -0.05582
3.31000 -0.07281
3.31200 0.04071
3.31400 -0.10919
3.31600 0.04805
3.31800 -0.05937
3.32000 -0.01294
3.32200 -0.03382
3.32400 -0.04803
3.32600 0.00158
3.32800 -0.00135
3.33000 -0.00446
3.33200 -0.04428
3.33400 -0.02149
3.33600 0.05241
3.33800 -0.03118
3.34000 0.05284
3.34200 -0.00027
3.34400 0.03524
3.34600 -0.01577
3.34800 0.01553
3.35000 -0.04606
3.35200 0.02714
3.35400 0.06503
3.35600 0.03632
3.35800 -0.13443
3.36000 0.01722
3.36200 0.03746
3.36400 -0.12331
3.36600 0.02639
3.36800 -0.05616
3.37000 0.07084
3.37200 -0.13041
3.37400 0.06884
3.37600 -0.05753
3.37800 0.00408
3.38000 0.04490
3.38200 0.03355
3.38400 0.05603
3.38600 -0.09300
3.38800 -0.05275
3.39000 -0.01854
3.39200 -0.01006
3.39400 0.01623
3.39600 0.02312
3.39800 -0.04735
3.40000 -0.02854
3.40200 -0.06483
3.40400 0.05043
3.40600 0.00294
3.40800 -0.03062
3.41000 0.03032
3.41200 0.01169
3.41400 0.04414
3.41600 -0.02486
3.41800 -0.11005
3.42000 -0.00799
3.42200 0.02089
3.42400 -0.00618
3.42600 -0.01697
3.42800 0.05781
3.43000 0.01599
3.43200 0.05957
3.43400 -0.00201
3.43600 0.02328
3.43800 -0.11660
3.44000 0.01332
3.44200 0.00250
3.44400 -0.04864
3.44600 0.09316
3.44800 0.09498
3.45000 0.02116
3.45200 -0.00244
3.45400 0.02021
3.45600 0.02330
3.45800 -0.05726
3.46000 -0.04722
3.46200 -0.00727
3.46400 0.01300
3.46600 -0.10230
3.46800 -0.04651
3.47000 -0.09170
3.47200 -0.05043
3.47400 -0.13434
3.47600 0.06819
3.47800 0.01333
3.48000 0.02742
3.48200 -0.02204
3.48400 0.01895
3.48600 -0.00904
3.48800 -0.03527
3.49000 0.01575
3.49200 -0.02453
3.49400 -0.01497
3.49600 0.08953
3.49800 0.02119
3.50000 -0.03719
3.50200 -0.07289
3.50400 0.01960
3.50600 -0.05216
3.50800 0.00738
3.51000 -0.05292
3.51200 0.03359
3.51400 0.07313
3.51600 0.02450
3.51800 0.01430
3.52000 0.03011
3.52200 0.00944
3.52400 0.04185
3.52600 0.08640
3.52800 -0.06725
3.53000 -0.02014
3.53200 -0.02306
3.53400 -0.03958
3.53600 0.02832
3.53800 0.07976
3.54000 -0.05649
3.54200 -0.02484
3.54400 0.03577
3.54600 -0.02361
3.54800 0.09984
3.55000 -0.02020
3.55200 -0.02476
3.55400 0.03796
3.55600 0.10748
3.55800 0.02912
3.56000 0.00681
3.56200 0.01132
3.56400 -0.06472
3.56600 0.00111
3.56800 -0.07232
3.57000 -0.09437
3.57200 0.03537
3.57400 -0.05857
3.57600 0.00611
3.57800 -0.09379
3.58000 0.08260
3.58200 -0.04320
3.58400 -0.04374
3.58600 -0.04719
3.58800 0.03948
3.59000 0.06975
3.59200 0.01586
3.59400 0.08383
3.59600 -0.03493
3.59800 -0.00788
3.60000 -0.11115
3.60200 -0.10087
3.60400 -0.03176
3.60600 0.08086
3.60800 0.02264
3.61000 -0.10714
3.61200 -0.03697
3.61400 0.08819
3.61600 0.00634
3.61800 -0.01418
3.62000 -0.00068
3.62200 0.01411
3.62400 0.05656
3.62600 0.00155
3.62800 0.05345
3.63000 -0.01872
3.63200 -0.01637
3.63400 0.01310
3.63600 0.01760
3.63800 -0.03234
3.64000 -0.05506
3.64200 0.04681
3.64400 0.05558
3.64600 -0.02228
3.64800 -0.06880
3.65000 0.00049
3.65200 -0.10496
3.65400 0.04113
3.65600 -0.02643
3.65800 -0.01715
3.66000 0.01598
3.66200 -0.00781
3.66400 0.03842
3.66600 0.00560
3.66800 -0.00103
3.67000 -0.12295
3.67200 -0.05180
3.67400 0.04103
3.67600 0.06934
3.67800 -0.00093
3.68000 -0.00127
3.68200 -0.12710
3.68400 -0.03904
3.68600 0.11462
3.68800 -0.09268
3.69000 0.01509
3.69200 -0.08939
3.69400 -0.00069
3.69600 0.02021
3.69800 -0.04604
3.70000 0.03964
3.70200 -0.02442
3.70400 0.07696
3.70600 0.04798
3.70800 0.05767
3.71000 0.11190
3.71200 0.10540
3.71400 -0.03555
3.71600 -0.05835
3.71800 0.02361
3.72000 0.07438
3.72200 -0.04259
3.72400 -0.07517
3.72600 -0.11409
3.72800 0.00027
3.73000 0.00088
3.73200 -0.05082
3.73400 -0.03238
3.73600 -0.07468
3.73800 0.06474
3.74000 0.00567
3.74200 0.06638
3.74400 -0.03429
3.74600 0.12357
3.74800 0.04329
3.75000 0.01762
3.75200 0.03469
3.75400 -0.06869
3.75600 0.02801
3.75800 -0.00440
3.76000 0.02919
3.76200 -0.02573
3.76400 0.00193
3.76600 -0.01577
3.76800 -0.01060
3.77000 0.09309
3.77200 0.09516
3.77400 -0.00751
3.77600 -0.00205
3.77800 0.06682
3.78000 0.08289
3.78200 -0.01657
3.78400 0.02154
3.78600 -0.03521
3.78800 -0.06547
3.79000 0.03486
3.79200 0.01571
3.79400 -0.00956
3.79600 -0.03609
3.79800 0.08084
3.80000 -0.04192
3.80200 -0.10058
3.80400 0.04294
3.80600 -0.02523
3.80800 0.02453
3.81000 0.08023
3.81200 -0.04435
3.81400 -0.05466
3.81600 -0.07946
3.81800 -0.05974
3.82000 -0.10375
3.82200 -0.02104
3.82400 0.00650
3.82600 -0.03210
3.82800 -0.01892
3.83000 0.05927
3.83200 0.05677
3.83400 0.05437
3.83600 -0.04929
3.83800 0.00971
3.84000 -0.07071
3.84200 -0.00935
3.84400 0.06726
3.84600 0.10414
3.84800 -0.05569
3.85000 -0.04715
3.85200 0.02556
3.85400 -0.01298
3.85600 0.01778
3.85800 0.06238
3.86000 -0.12088
3.86200 0.13199
3.86400 0.04137
3.86600 -0.00953
3.86800 0.02300
3.87000 -0.08394
3.87200 0.01219
3.87400 -0.01048
3.87600 0.01370
3.87800 0.02543
3.88000 -0.05151
3.88200 -0.07345
3.88400 0.09361
3.88600 0.03955
3.88800 -0.02724
3.89000 0.07327
3.89200 -0.06168
3.89400 -0.00538
3.89600 -0.02516
3.89800 -0.02359
3.90000 0.02174
3.90200 0.02777
3.90400 -0.01723
3.90600 -0.06963
3.90800 0.09828
3.91000 -0.02547
3.91200 0.08957
3.91400 -0.04386
3.91600 0.01476
3.91800 -0.03004
3.92000 0.08683
3.92200 -0.01225
3.92400 0.08123
3.92600 0.02000
3.92800 0.01336
3.93000 -0.07967
3.93200 0.00303
3.93400 0.04432
3.93600 0.02242
3.93800 -0.16546
3.94000 -0.04898
3.94200 -0.04143
3.94400 -0.04020
3.94600 -0.05863
3.94800 0.03843
3.95000 -0.07126
3.95200 0.01438
3.95400 -0.09758
3.95600 -0.02125
3.95800 0.11073
3.96000 0.00832
3.96200 0.01067
3.96400 0.10793
3.96600 0.56855
3.96800 1.01602
3.97000 1.43501
3.97200 1.35300
3.97400 0.71762
3.97600 0.31878
3.97800 0.02062
3.98000 0.12333
3.98200 -0.05852
3.98400 0.02499
3.98600 0.05163
3.98800 0.00624
3.99000 0.05278
3.99200 -0.00221
3.99400 0.08628
3.99600 0.03328
3.99800 -0.03454
4.00000 -0.01893
4.00200 -0.00435
4.00400 -0.13534
4.00600 -0.04427
4.00800 -0.00344
4.01000 -0.00775
4.01200 -0.17871
4.01400 0.07282
4.01600 0.07920
4.01800 -0.03753
4.02000 -0.05577
4.02200 0.00532
4.02400 -0.02802
4.02600 -0.01050
4.02800 0.03701
4.03000 0.00066
4.03200 0.04725
4.03400 -0.03242
4.03600 -0.01760
4.03800 -0.14217
4.04000 -0.03303
4.04200 0.06788
4.04400 -0.04605
4.04600 0.00736
4.04800 0.00126
4.05000 0.03888
4.05200 0.04573
4.05400 0.09187
4.05600 -0.08790
4.05800 0.08231
4.06000 -0.01599
4.06200 -0.01601
4.06400 -0.04843
4.06600 -0.00687
4.06800 0.04505
4.07000 0.02679
4.07200 0.12475
4.07400 0.03010
4.07600 0.09045
4.07800 0.02751
4.08000 0.01847
4.08200 -0.01876
4.08400 0.02102
4.08600 0.09243
4.08800 0.04613
4.09000 0.02115
4.09200 -0.08001
4.09400 -0.08523
4.09600 -0.01489
4.09800 0.05038
4.10000 0.11147
4.10200 -0.05674
4.10400 0.09755
4.10600 0.06500
4.10800 0.05793
4.11000 0.02353
4.11200 -0.02117
4.11400 0.02698
4.11600 -0.07293
4.11800 0.05826
4.12000 -0.05764
4.12200 -0.08858
4.12400 0.03699
4.12600 -0.02474
4.12800 -0.06744
4.13000 -0.03684
4.13200 -0.00120
4.13400 -0.02520
4.13600 0.08076
4.13800 0.01795
4.14000 0.01520
4.14200 -0.05200
4.14400 0.05841
4.14600 0.02369
4.14800 0.01579
4.15000 0.00899
4.15200 -0.07517
4.15400 -0.01927
4.15600 -0.01683
4.15800 -0.05360
4.16000 0.01333
4.16200 -0.02599
4.16400 -0.06353
4.16600 -0.00228
4.16800 -0.02418
4.17000 0.05398
4.17200 0.06234
4.17400 -0.00753
4.17600 -0.05257
4.17800 -0.12593
4.18000 -0.11721
4.18200 -0.02825
4.18400 0.03047
4.18600 0.00424
4.18800 0.00456
4.19000 0.03758
4.19200 0.10982
4.19400 -0.07704
4.19600 -0.06540
4.19800 0.04323
4.20000 -0.04297
4.20200 0.01835
4.20400 0.00562
4.20600 -0.00387
4.20800 -0.02755
4.21000 -0.08873
4.21200 0.00926
4.21400 -0.10840
4.21600 0.08700
4.21800 -0.01375
4.22000 0.06388
4.22200 -0.03222
4.22400 0.05547
4.22600 -0.04390
4.22800 0.04662
4.23000 -0.01244
4.23200 0.08487
4.23400 -0.06907
4.23600 0.06922
4.23800 -0.05074
4.24000 -0.04410
4.24200 -0.12878
4.24400 -0.00830
4.24600 0.10392
4.24800 0.01307
4.25000 -0.01685
4.25200 -0.16109
4.25400 0.08415
4.25600 0.03444
4.25800 -0.03858
4.26000 -0.06335
4.26200 -0.07805
4.26400 -0.03122
4.26600 -0.04502
4.26800 -0.04658
4.27000 -0.00312
4.27200 -0.16332
4.27400 -0.00571
4.27600 0.01908
4.27800 -0.03595
4.28000 0.05465
4.28200 -0.03226
4.28400 -0.04608
4.28600 -0.04400
4.28800 0.02622
4.29000 0.06056
4.29200 0.00315
4.29400 -0.05760
4.29600 0.17329
4.29800 0.03600
4.30000 0.00282
4.30200 -0.00341
4.30400 0.01512
4.30600 -0.05391
4.30800 -0.00367
4.31000 0.02409
4.31200 0.03680
4.31400 -0.09595
4.31600 0.05419
4.31800 0.05901
4.32000 -0.01704
4.32200 0.02498
4.32400 -0.05049
4.32600 -0.02069
4.32800 -0.08486
4.33000 -0.01752
4.33200 0.02341
4.33400 -0.08915
4.33600 0.03872
4.33800 -0.08619
4.34000 0.07020
4.34200 0.00969
4.34400 0.01650
4.34600 0.10865
4.34800 -0.01786
4.35000 -0.01081
4.35200 0.03021
4.35400 0.00606
4.35600 0.03573
4.35800 -0.11500
4.36000 -0.15809
4.36200 -0.09432
4.36400 -0.03272
4.36600 -0.03669
4.36800 -0.02816
4.37000 -0.01998
4.37200 0.05569
4.37400 0.07926
4.37600 0.02367
4.37800 0.05841
4.38000 -0.00714
4.38200 0.02872
4.38400 0.04421
4.38600 0.01822
4.38800 0.06468
4.39000 -0.01111
4.39200 -0.05684
4.39400 -0.03189
4.39600 0.01323
4.39800 0.01545
4.40000 0.05510
4.40200 -0.00837
4.40400 -0.07401
4.40600 0.07628
4.40800 0.04743
4.41000 0.00628
4.41200 -0.01558
4.41400 -0.04161
4.41600 0.00458
4.41800 0.07727
4.42000 0.07779
4.42200 -0.05362
4.42400 0.01030
4.42600 -0.01702
4.42800 0.05470
4.43000 -0.10735
4.43200 0.04717
4.43400 0.05519
4.43600 0.15748
4.43800 -0.01470
4.44000 0.01693
4.44200 0.08270
4.44400 0.06458
4.44600 -0.00159
4.44800 -0.02082
4.45000 -0.10123
4.45200 -0.04287
4.45400 0.00094
4.45600 0.12743
4.45800 -0.02468
4.46000 0.00148
4.46200 0.01671
4.46400 0.08486
4.46600 0.06558
4.46800 -0.00343
4.47000 0.06259
4.47200 -0.04747
4.47400 0.00586
4.47600 -0.06287
4.47800 0.09380
4.48000 -0.02275
4.48200 -0.01606
4.48400 -0.02623
4.48600 -0.02268
4.48800 0.07684
4.49000 0.06063
4.49200 -0.00925
4.49400 0.09779
4.49600 0.00479
4.49800 0.02276
4.50000 0.02169
4.50200 0.14608
4.50400 0.05053
4.50600 -0.00640
4.50800 0.09638
4.51000 -0.01547
4.51200 0.03440
4.51400 -0.03486
4.51600 0.01815
4.51800 0.00636
4.52000 -0.00853
4.52200 0.15868
4.52400 -0.02679
4.52600 0.03499
4.52800 -0.00560
4.53000 -0.07276
4.53200 0.10119
4.53400 0.02330
4.53600 0.10505
4.53800 -0.04792
4.54000 0.11297
4.54200 -0.04919
4.54400 0.03829
4.54600 -0.06751
4.54800 -0.05780
4.55000 -0.10893
4.55200 0.06536
4.55400 -0.01140
4.55600 -0.12402
4.55800 -0.10462
4.56000 -0.02273
4.56200 0.01333
4.56400 -0.01901
4.56600 -0.05034
4.56800 0.01587
4.57000 0.06582
4.57200 -0.02406
4.57400 -0.09255
4.57600 0.01147
4.57800 -0.06178
4.58000 0.00962
4.58200 -0.03105
4.58400 0.00742
4.58600 0.02879
4.58800 -0.03524
4.59000 0.05222
4.59200 -0.03158
4.59400 -0.04910
4.59600 0.00307
4.59800 0.00248
4.60000 0.05373
4.60200 0.04196
4.60400 -0.03474
4.60600 -0.00877
4.60800 -0.06524
4.61000 -0.09338
4.61200 -0.02353
4.61400 -0.08642
4.61600 0.10267
4.61800 0.09076
4.62000 0.02615
4.62200 -0.04205
4.62400 0.01793
4.62600 0.07204
4.62800 -0.02370
4.63000 -0.05052
4.63200 -0.09866
4.63400 -0.11476
4.63600 -0.03557
4.63800 0.04887
4.64000 -0.06796
4.64200 0.10600
4.64400 0.07434
4.64600 0.09136
4.64800 -0.10394
4.65000 0.04733
4.65200 -0.01371
4.65400 -0.08995
4.65600 -0.06108
4.65800 -0.11151
4.66000 0.02573
4.66200 -0.08298
4.66400 0.08564
4.66600 0.05056
4.66800 0.00385
4.67000 0.00430
4.67200 0.00801
4.67400 0.02163
4.67600 -0.01413
4.67800 0.08542
4.68000 -0.07677
4.68200 -0.11608
4.68400 -0.00256
4.68600 0.16890
4.68800 0.01405
4.69000 -0.05302
4.69200 -0.07880
4.69400 0.01211
4.69600 -0.00795
4.69800 -0.12414
4.70000 -0.00705
4.70200 0.02740
4.70400 0.11385
4.70600 0.02266
4.70800 0.03472
4.71000 0.04338
4.71200 -0.02680
4.71400 -0.06231
4.71600 0.03917
4.71800 -0.17563
4.72000 -0.10625
4.72200 -0.06378
4.72400 -0.12815
4.72600 -0.01688
4.72800 0.07298
4.73000 -0.01280
4.73200 -0.04098
4.73400 -0.04795
4.73600 0.00083
4.73800 -0.04297
4.74000 -0.01210
4.74200 -0.01093
4.74400 -0.02276
4.74600 -0.15292
4.74800 -0.00205
4.75000 -0.03755
4.75200 0.07973
4.75400 -0.01077
4.75600 0.08117
4.75800 0.00637
4.76000 -0.07310
4.76200 0.00320
4.76400 0.05907
4.76600 0.07485
4.76800 -0.05093
4.77000 -0.00372
4.77200 -0.04552
4.77400 -0.04903
4.77600 -0.01477
4.77800 0.00839
4.78000 -0.08199
4.78200 0.08161
4.78400 0.02487
4.78600 0.04324
4.78800 0.05334
4.79000 -0.11301
4.79200 -0.01836
4.79400 -0.09445
4.79600 -0.06508
4.79800 0.05479
4.80000 0.01043
4.80200 0.03504
4.80400 -0.11353
4.80600 0.04752
4.80800 -0.02992
4.81000 -0.04573
4.81200 -0.12605
4.81400 -0.00075
4.81600 -0.01826
4.81800 -0.04125
4.82000 0.04054
4.82200 0.11523
4.82400 0.02609
4.82600 -0.03431
4.82800 0.05908
4.83000 -0.05106
4.83200 0.04726
4.83400 0.05520
4.83600 -0.06630
4.83800 -0.00050
4.84000 0.07559
4.84200 -0.02909
4.84400 0.01906
4.84600 0.18739
4.84800 0.48397
4.85000 0.97702
4.85200 1.38069
4.85400 1.31243
4.85600 0.96271
4.85800 0.35042
4.86000 0.06591
4.86200 0.14865
4.86400 0.17515
4.86600 -0.07450
4.86800 0.00450
4.87000 -0.07883
4.87200 -0.11292
4.87400 -0.01353
4.87600 0.02746
4.87800 -0.05034
4.88000 -0.06315
4.88200 0.00599
4.88400 -0.08763
4.88600 0.04772
4.88800 -0.01502
4.89000 -0.02846
4.89200 0.01074
4.89400 0.00438
4.89600 -0.09050
4.89800 -0.09910
4.90000 -0.02305
4.90200 0.09679
4.90400 -0.07259
4.90600 -0.00227
4.90800 0.12414
4.91000 -0.06391
4.91200 0.02527
4.91400 -0.04654
4.91600 -0.03771
4.91800 0.03647
4.92000 -0.00404
4.92200 0.02252
4.92400 -0.03682
4.92600 -0.01818
4.92800 -0.05662
4.93000 -0.03709
4.93200 0.08479
4.93400 0.10455
4.93600 0.04255
4.93800 0.06848
4.94000 0.02123
4.94200 -0.05164
4.94400 0.01800
4.94600 -0.02453
4.94800 0.02506
4.95000 0.07519
4.95200 0.01599
4.95400 0.01258
4.95600 0.02514
4.95800 0.00688
4.96000 0.01201
4.96200 -0.10779
4.96400 0.08848
4.96600 -0.00715
4.96800 0.06405
4.97000 -0.00997
4.97200 -0.01363
4.97400 -0.03023
4.97600 0.00576
4.97800 0.06405
4.98000 -0.02573
4.98200 -0.06755
4.98400 0.02150
4.98600 0.11864
4.98800 -0.03969
4.99000 -0.14812
4.99200 -0.01262
4.99400 -0.01563
4.99600 -0.02925
4.99800 0.04561
5.00000 -0.09346
5.00200 -0.00960
5.00400 0.00791
5.00600 0.06537
5.00800 -0.00817
5.01000 -0.10939
5.01200 0.04342
5.01400 -0.00465
5.01600 0.02738
5.01800 -0.01216
5.02000 -0.04040
5.02200 -0.00731
5.02400 -0.00442
5.02600 -0.05620
5.02800 0.04435
5.03000 0.07173
5.03200 -0.08605
5.03400 0.02013
5.03600 0.01446
5.03800 0.11123
5.04000 -0.06605
5.04200 -0.08481
5.04400 -0.03427
5.04600 -0.07904
5.04800 -0.11516
5.05000 -0.14493
5.05200 -0.00821
5.05400 0.03919
5.05600 0.00649
5.05800 0.00417
5.06000 0.00029
5.06200 0.11961
5.06400 -0.00256
5.06600 -0.02983
5.06800 -0.11716
5.07000 -0.01222
5.07200 -0.09415
5.07400 -0.02209
5.07600 0.01783
5.07800 0.03333
5.08000 0.08011
5.08200 0.07896
5.08400 -0.08658
5.08600 0.01790
5.08800 -0.02474
5.09000 0.08098
5.09200 0.06318
5.09400 0.03086
5.09600 -0.03328
5.09800 0.08312
5.10000 0.02227
5.10200 0.06556
5.10400 -0.04177
5.10600 0.03304
5.10800 -0.03676
5.11000 -0.00693
5.11200 0.07746
5.11400 -0.01492
5.11600 0.06913
5.11800 0.01353
5.12000 0.09362
5.12200 0.03017
5.12400 0.03861
5.12600 -0.03542
5.12800 0.03555
5.13000 0.02309
5.13200 0.09086
5.13400 0.14232
5.13600 0.08080
5.13800 -0.05322
5.14000 -0.02029
5.14200 0.11139
5.14400 -0.08205
5.14600 0.06805
5.14800 0.00220
5.15000 0.05993
5.15200 -0.03709
5.15400 0.03474
5.15600 0.08283
5.15800 -0.05403
5.16000 -0.14654
5.16200 0.04502
5.16400 -0.02256
5.16600 0.11980
5.16800 0.02251
5.17000 0.07150
5.17200 -0.07598
5.17400 0.02427
5.17600 0.04275
5.17800 -0.07454
5.18000 0.04288
5.18200 0.04558
5.18400 -0.01109
5.18600 0.03551
5.18800 -0.06582
5.19000 0.01371
5.19200 -0.03633
5.19400 0.00693
5.19600 0.05975
5.19800 0.03144
5.20000 -0.05283
5.20200 0.06750
5.20400 -0.01075
5.20600 -0.02275
5.20800 -0.04596
5.21000 0.00094
5.21200 -0.03292
5.21400 -0.03736
5.21600 -0.06070
5.21800 0.01379
5.22000 0.11019
5.22200 -0.05813
5.22400 0.05465
5.22600 0.06886
5.22800 0.10680
5.23000 0.06132
5.23200 -0.05862
5.23400 -0.07606
5.23600 0.08058
5.23800 0.11518
5.24000 0.03643
5.24200 -0.03564
5.24400 -0.00236
5.24600 0.02614
5.24800 -0.13436
5.25000 0.00805
5.25200 -0.01658
5.25400 0.03291
5.25600 -0.12410
5.25800 0.01325
5.26000 0.06779
5.26200 0.05967
5.26400 -0.04137
5.26600 -0.03385
5.26800 0.10389
5.27000 -0.07362
5.27200 -0.00053
5.27400 -0.01606
5.27600 -0.03405
5.27800 -0.08401
5.28000 0.03134
5.28200 0.09686
5.28400 -0.03386
5.28600 0.05779
5.28800 -0.05457
5.29000 -0.01939
5.29200 0.03655
5.29400 -0.01677
5.29600 -0.05291
5.29800 -0.01454
5.30000 -0.05432
5.30200 0.00371
5.30400 0.13855
5.30600 -0.02174
5.30800 -0.09801
5.31000 -0.09842
5.31200 -0.08891
5.31400 -0.04467
5.31600 -0.02442
5.31800 0.03267
5.32000 -0.03857
5.32200 0.03135
5.32400 -0.03869
5.32600 0.05236
5.32800 0.05919
5.33000 -0.05072
5.33200 0.01342
5.33400 0.08790
5.33600 0.00264
5.33800 -0.05206
5.34000 0.08561
5.34200 -0.10308
5.34400 -0.02030
5.34600 0.04972
5.34800 0.04963
5.35000 0.07062
5.35200 -0.05904
5.35400 -0.10420
5.35600 -0.02439
5.35800 -0.05425
5.36000 -0.03622
5.36200 0.12103
5.36400 -0.16249
5.36600 -0.04709
5.36800 0.01021
5.37000 0.10064
5.37200 -0.00722
5.37400 0.11033
5.37600 0.01678
5.37800 0.03053
5.38000 -0.07035
5.38200 0.01989
5.38400 -0.01673
5.38600 -0.00497
5.38800 0.05242
5.39000 -0.01516
5.39200 0.05074
5.39400 0.12266
5.39600 -0.03101
5.39800 -0.01089
5.40000 -0.02384
5.40200 0.04691
5.40400 0.03197
5.40600 -0.04383
5.40800 -0.05763
5.41000 0.01817
5.41200 -0.07729
5.41400 0.08200
5.41600 0.02171
5.41800 0.07872
5.42000 -0.06108
5.42200 -0.11435
5.42400 -0.01885
5.42600 -0.00185
5.42800 0.05230
5.43000 -0.01878
5.43200 0.05049
5.43400 -0.05769
5.43600 0.00047
5.43800 -0.01809
5.44000 0.03557
5.44200 -0.03621
5.44400 -0.02287
5.44600 -0.04136
5.44800 -0.05130
5.45000 0.03668
5.45200 0.10731
5.45400 -0.02198
5.45600 -0.07973
5.45800 0.06585
5.46000 0.03917
5.46200 -0.02539
5.46400 0.03843
5.46600 -0.02185
5.46800 0.03400
5.47000 -0.00186
5.47200 0.00203
5.47400 -0.09875
5.47600 -0.07304
5.47800 -0.01151
5.48000 -0.03991
5.48200 0.12753
5.48400 0.02939
5.48600 -0.02524
5.48800 -0.12183
5.49000 -0.03295
5.49200 0.02175
5.49400 -0.02009
5.49600 0.01283
5.49800 -0.12584
5.50000 0.08774
5.50200 -0.08451
5.50400 0.05252
5.50600 0.03914
5.50800 0.04475
5.51000 -0.03824
5.51200 -0.02145
5.51400 -0.04597
5.51600 -0.06439
5.51800 -0.07213
5.52000 -0.06078
5.52200 -0.10096
5.52400 -0.07468
5.52600 -0.05782
5.52800 0.03866
5.53000 0.06760
5.53200 -0.02853
5.53400 0.07090
5.53600 0.03904
5.53800 -0.01736
5.54000 -0.05103
5.54200 0.04921
5.54400 -0.07899
5.54600 -0.01316
5.54800 0.07684
5.55000 -0.02067
5.55200 0.04284
5.55400 -0.04904
5.55600 -0.04672
5.55800 0.03543
5.56000 0.01711
5.56200 0.07197
5.56400 -0.10570
5.56600 -0.07788
5.56800 0.00524
5.57000 -0.07043
5.57200 -0.01194
5.57400 0.08692
5.57600 0.15106
5.57800 0.04191
5.58000 -0.00638
5.58200 -0.05738
5.58400 0.06704
5.58600 -0.10665
5.58800 0.01638
5.59000 -0.06902
5.59200 0.03523
5.59400 -0.08828
5.59600 -0.05234
5.59800 0.01403
5.60000 -0.01380
5.60200 -0.02478
5.60400 -0.01471
5.60600 0.09818
5.60800 -0.07941
5.61000 -0.04865
5.61200 -0.03602
5.61400 -0.05806
5.61600 -0.03199
5.61800 0.00745
5.62000 -0.02697
5.62200 0.02290
5.62400 -0.02167
5.62600 -0.15552
5.62800 -0.06864
5.63000 -0.08405
5.63200 0.15851
5.63400 -0.02329
5.63600 -0.01838
5.63800 0.00955
5.64000 -0.03177
5.64200 0.04598
5.64400 -0.05740
5.64600 0.10650
5.64800 -0.01035
5.65000 -0.04065
5.65200 0.04140
5.65400 -0.05725
5.65600 -0.04984
5.65800 -0.08053
5.66000 -0.06179
5.66200 0.05138
5.66400 0.06888
5.66600 -0.05907
5.66800 -0.06895
5.67000 -0.04719
5.67200 -0.06505
5.67400 0.01857
5.67600 -0.10750
5.67800 0.00953
5.68000 0.07624
5.68200 0.10628
5.68400 -0.07695
5.68600 -0.03813
5.68800 -0.07542
5.69000 0.04106
5.69200 -0.06461
5.69400 -0.00718
5.69600 0.02926
5.69800 -0.02982
5.70000 0.00484
5.70200 -0.00391
5.70400 0.00642
5.70600 -0.14299
5.70800 -0.02194
5.71000 -0.16519
5.71200 -0.07414
5.71400 0.02347
5.71600 -0.08685
5.71800 -0.02718
5.72000 -0.06271
5.72200 0.09336
5.72400 -0.07944
5.72600 -0.04049
5.72800 0.08866
5.73000 0.25211
5.73200 0.82318
5.73400 1.43576
5.73600 1.55598
5.73800 0.95915
5.74000 0.47899
5.74200 0.18495
5.74400 0.01545
5.74600 0.09076
5.74800 -0.00888
5.75000 -0.03790
5.75200 -0.05939
5.75400 0.09714
5.75600 0.00441
5.75800 0.01981
5.76000 0.00158
5.76200 -0.03066
5.76400 -0.03641
5.76600 0.02654
5.76800 0.04333
5.77000 -0.02383
5.77200 -0.04365
5.77400 -0.02886
5.77600 -0.05902
5.77800 -0.04099
5.78000 -0.08293
5.78200 0.00541
5.78400 -0.02960
5.78600 0.02470
5.78800 0.12325
5.79000 0.04914
5.79200 0.05988
5.79400 0.00188
5.79600 -0.07672
5.79800 -0.04308
5.80000 0.05482
5.80200 0.00085
5.80400 -0.03149
5.80600 0.03174
5.80800 -0.08644
5.81000 -0.04888
5.81200 0.04190
5.81400 0.09903
5.81600 0.06575
5.81800 0.10188
5.82000 -0.03961
5.82200 -0.07572
5.82400 -0.00701
5.82600 -0.04557
5.82800 0.03821
5.83000 -0.07916
5.83200 -0.06483
5.83400 -0.00866
5.83600 0.11664
5.83800 0.00303
5.84000 -0.03058
5.84200 -0.03959
5.84400 0.07562
5.84600 -0.00906
5.84800 -0.07359
5.85000 -0.11611
5.85200 0.09150
5.85400 -0.08678
5.85600 -0.07601
5.85800 -0.04502
5.86000 0.03863
5.86200 0.01721
5.86400 0.07299
5.86600 0.10514
5.86800 -0.02794
5.87000 -0.03835
5.87200 -0.02853
5.87400 -0.02615
5.87600 0.04525
5.87800 -0.03735
5.88000 -0.00575
5.88200 -0.07982
5.88400 0.01688
5.88600 0.05141
5.88800 0.01466
5.89000 0.13828
5.89200 -0.17015
5.89400 -0.09186
5.89600 -0.06277
5.89800 0.02964
5.90000 -0.03798
5.90200 0.03402
5.90400 -0.08468
5.90600 0.02636
5.90800 0.09175
5.91000 0.14490
5.91200 -0.05979
5.91400 0.00758
5.91600 -0.04717
5.91800 -0.02899
5.92000 0.08224
5.92200 -0.02804
5.92400 0.08253
5.92600 -0.02466
5.92800 0.11096
5.93000 0.08503
5.93200 0.03396
5.93400 0.02077
5.93600 -0.14030
5.93800 0.01395
5.94000 0.01963
5.94200 -0.07012
5.94400 -0.01975
5.94600 -0.11486
5.94800 0.03141
5.95000 0.07644
5.95200 0.02576
5.95400 0.03022
5.95600 0.01050
5.95800 -0.00051
5.96000 -0.03391
5.96200 -0.06358
5.96400 -0.05257
5.96600 -0.02295
5.96800 0.04716
5.97000 -0.04258
5.97200 0.02109
5.97400 -0.08731
5.97600 -0.02616
5.97800 0.03887
5.98000 -0.11733
5.98200 0.00602
5.98400 0.02008
5.98600 0.05479
5.98800 0.01579
5.99000 0.07340
5.99200 -0.10165
5.99400 -0.03685
5.99600 0.09357
5.99800 0.01657
6.00000 0.02285
6.00200 0.02436
6.00400 -0.04905
6.00600 0.01120
6.00800 0.02467
6.01000 0.04735
6.01200 0.02308
6.01400 0.04955
6.01600 -0.03913
6.01800 -0.01550
6.02000 -0.02890
6.02200 0.07555
6.02400 0.03164
6.02600 0.08321
6.02800 0.02463
6.03000 -0.00812
6.03200 0.10061
6.03400 0.09451
6.03600 0.11547
6.03800 0.01773
6.04000 -0.00104
6.04200 0.03335
6.04400 0.01918
6.04600 -0.00034
6.04800 0.02691
6.05000 -0.01413
6.05200 -0.06476
6.05400 0.04115
6.05600 0.07780
6.05800 -0.03327
6.06000 0.02014
6.06200 0.02445
6.06400 0.00108
6.06600 -0.00599
6.06800 0.03390
6.07000 -0.03541
6.07200 0.11925
6.07400 0.04936
6.07600 -0.02015
6.07800 0.00236
6.08000 0.02864
6.08200 0.01163
6.08400 -0.11826
6.08600 0.03851
6.08800 -0.00894
6.09000 -0.08533
6.09200 0.07692
6.09400 0.04914
6.09600 -0.00908
6.09800 0.00217
6.10000 -0.03869
6.10200 0.01498
6.10400 -0.01784
6.10600 -0.02766
6.10800 -0.03994
6.11000 -0.06819
6.11200 -0.04008
6.11400 -0.04792
6.11600 0.01759
6.11800 -0.04239
6.12000 0.06383
6.12200 0.12077
6.12400 -0.00650
6.12600 -0.07960
6.12800 0.01694
6.13000 -0.03320
6.13200 -0.08298
6.13400 0.01009
6.13600 -0.00107
6.13800 -0.02418
6.14000 0.12628
6.14200 -0.16144
6.14400 -0.12044
6.14600 -0.07790
6.14800 -0.03252
6.15000 0.03763
6.15200 -0.03735
6.15400 0.10002
6.15600 0.10166
6.15800 0.04810
6.16000 -0.08515
6.16200 0.08582
6.16400 -0.03038
6.16600 0.02512
6.16800 0.08884
6.17000 -0.01322
6.17200 -0.02106
6.17400 0.01457
6.17600 -0.05290
6.17800 -0.02884
6.18000 0.07831
6.18200 0.00296
6.18400 0.11717
6.18600 -0.00708
6.18800 0.08085
6.19000 0.05880
6.19200 -0.03408
6.19400 0.12968
6.19600 -0.06225
6.19800 0.08916
6.20000 0.02160
6.20200 -0.10675
6.20400 -0.02808
6.20600 0.03912
6.20800 0.10587
6.21000 -0.08547
6.21200 -0.13184
6.21400 -0.04599
6.21600 -0.05486
6.21800 0.03885
6.22000 0.02166
6.22200 -0.03741
6.22400 0.03320
6.22600 -0.07067
6.22800 -0.02050
6.23000 -0.10998
6.23200 -0.10498
6.23400 -0.02672
6.23600 -0.03185
6.23800 -0.05752
6.24000 0.03524
6.24200 0.00763
6.24400 0.03175
6.24600 -0.03826
6.24800 0.06216
6.25000 -0.04119
6.25200 0.01803
6.25400 -0.00074
6.25600 -0.05718
6.25800 0.02322
6.26000 -0.08032
6.26200 0.02427
6.26400 0.05071
6.26600 0.04478
6.26800 0.01098
6.27000 -0.00869
6.27200 0.09079
6.27400 0.09907
6.27600 -0.06111
6.27800 0.00825
6.28000 0.00125
6.28200 -0.10750
6.28400 -0.01748
6.28600 0.08033
6.28800 -0.05879
6.29000 0.04965
6.29200 -0.00315
6.29400 -0.03368
6.29600 0.01997
6.29800 -0.00283
6.30000 -0.05871
6.30200 -0.06557
6.30400 -0.00129
6.30600 0.05538
6.30800 0.02588
6.31000 0.03224
6.31200 0.03495
6.31400 -0.05955
6.31600 -0.13822
6.31800 -0.01151
6.32000 0.01786
6.32200 -0.10971
6.32400 0.04413
6.32600 0.14907
6.32800 0.04462
6.33000 -0.07377
6.33200 -0.01404
6.33400 -0.01147
6.33600 -0.03930
6.33800 0.01937
6.34000 -0.02532
6.34200 0.02810
6.34400 -0.05437
6.34600 0.06387
6.34800 -0.02676
6.35000 0.03691
6.35200 0.06496
6.35400 -0.01242
6.35600 0.05276
6.35800 0.00500
6.36000 0.02068
6.36200 0.01837
6.36400 0.08310
6.36600 0.00836
6.36800 -0.00890
6.37000 -0.09794
6.37200 0.00927
6.37400 -0.02454
6.37600 0.02857
6.37800 0.00625
6.38000 -0.02052
6.38200 -0.03918
6.38400 0.03188
6.38600 0.09226
6.38800 0.06239
6.39000 -0.04783
6.39200 0.02236
6.39400 0.06545
6.39600 -0.04903
6.39800 0.05385
6.40000 0.08745
6.40200 -0.02625
6.40400 -0.11444
6.40600 0.05118
6.40800 -0.02746
6.41000 -0.02591
6.41200 0.01230
6.41400 -0.03351
6.41600 0.01573
6.41800 -0.01326
6.42000 0.03020
6.42200 0.07875
6.42400 -0.05459
6.42600 0.17305
6.42800 0.07196
6.43000 -0.04264
6.43200 0.04201
6.43400 0.06072
6.43600 0.09725
6.43800 -0.06187
6.44000 0.06966
6.44200 0.01735
6.44400 0.02634
6.44600 0.02895
6.44800 -0.00113
6.45000 0.01422
6.45200 -0.14012
6.45400 0.03429
6.45600 0.01557
6.45800 0.02144
6.46000 -0.04094
6.46200 0.00160
6.46400 -0.08683
6.46600 -0.00536
6.46800 0.04124
6.47000 0.01814
6.47200 -0.03738
6.47400 -0.00169
6.47600 0.07448
6.47800 -0.06342
6.48000 -0.05685
6.48200 -0.00552
6.48400 -0.00748
6.48600 -0.08759
6.48800 0.01952
6.49000 -0.21282
6.49200 -0.08683
6.49400 0.00146
6.49600 -0.10585
6.49800 0.01041
6.50000 -0.05893
6.50200 0.08225
6.50400 -0.01901
6.50600 -0.03030
6.50800 0.13384
6.51000 0.05053
6.51200 0.06361
6.51400 -0.01384
6.51600 -0.00388
6.51800 0.08249
6.52000 0.10126
6.52200 0.02123
6.52400 0.03344
6.52600 0.03397
6.52800 0.02955
6.53000 -0.12648
6.53200 0.00434
6.53400 0.01274
6.53600 -0.10351
6.53800 0.01858
6.54000 -0.00131
6.54200 0.01425
6.54400 0.09031
6.54600 -0.10042
6.54800 0.01273
6.55000 0.01855
6.55200 -0.06450
6.55400 -0.02748
6.55600 -0.07585
6.55800 0.04060
6.56000 -0.01177
6.56200 -0.03542
6.56400 0.05980
6.56600 0.07317
6.56800 -0.03777
6.57000 -0.07419
6.57200 -0.03100
6.57400 -0.10921
6.57600 -0.04119
6.57800 0.06598
6.58000 0.03958
6.58200 0.00820
6.58400 0.04880
6.58600 -0.14442
6.58800 0.04865
6.59000 -0.03720
6.59200 -0.02382
6.59400 -0.04341
6.59600 -0.01767
6.59800 0.09861
6.60000 -0.01681
6.60200 0.05042
6.60400 -0.15671
6.60600 0.03876
6.60800 0.08346
6.61000 0.03442
6.61200 0.20119
6.61400 0.71489
6.61600 1.17213
6.61800 1.36255
6.62000 1.03258
6.62200 0.55015
6.62400 0.12548
6.62600 0.11609
6.62800 -0.00783
6.63000 -0.02028
6.63200 0.10480
6.63400 0.09558
6.63600 -0.03986
6.63800 0.09310
6.64000 0.02919
6.64200 -0.00123
6.64400 0.00121
6.64600 0.00841
6.64800 0.08107
6.65000 0.10306
6.65200 0.08775
6.65400 -0.05242
6.65600 0.05887
6.65800 -0.03530
6.66000 -0.00411
6.66200 -0.11241
6.66400 -0.07386
6.66600 0.05399
6.66800 -0.03278
6.67000 -0.05661
6.67200 0.01476
6.67400 -0.11439
6.67600 -0.05396
6.67800 0.00630
6.68000 0.18189
6.68200 -0.08094
6.68400 -0.04938
6.68600 0.05564
6.68800 0.07308
6.69000 0.04393
6.69200 0.04455
6.69400 0.04659
6.69600 0.04866
6.69800 0.00615
6.70000 0.00322
6.70200 -0.09090
6.70400 -0.01657
6.70600 -0.14853
6.70800 -0.04246
6.71000 -0.01454
6.71200 0.07651
6.71400 0.12486
6.71600 0.07373
6.71800 0.09339
6.72000 -0.10243
6.72200 0.00499
6.72400 0.04635
6.72600 -0.02015
6.72800 0.00380
6.73000 -0.09572
6.73200 0.03366
6.73400 -0.05611
6.73600 0.01865
6.73800 -0.01614
6.74000 -0.10313
6.74200 0.01425
6.74400 0.02329
6.74600 0.03869
6.74800 -0.03653
6.75000 0.02038
6.75200 -0.07327
6.75400 -0.06266
6.75600 -0.02109
6.75800 0.05469
6.76000 0.07367
6.76200 -0.10895
6.76400 -0.02156
6.76600 0.01058
6.76800 0.01574
6.77000 -0.06404
6.77200 -0.15420
6.77400 -0.03301
6.77600 0.08045
6.77800 -0.05745
6.78000 0.00261
6.78200 0.06855
6.78400 0.04267
6.78600 0.06080
6.78800 0.05385
6.79000 0.02287
6.79200 0.04137
6.79400 0.12500
6.79600 -0.02723
6.79800 0.00099
6.80000 -0.04485
6.80200 0.02960
6.80400 -0.03827
6.80600 -0.04475
6.80800 0.03930
6.81000 -0.00140
6.81200 0.05800
6.81400 0.00279
6.81600 -0.13941
6.81800 -0.02780
6.82000 -0.05950
6.82200 -0.01548
6.82400 -0.02796
6.82600 0.03809
6.82800 -0.04167
6.83000 0.00761
6.83200 0.03879
6.83400 -0.00486
6.83600 -0.00790
6.83800 0.13957
6.84000 0.07855
6.84200 -0.04599
6.84400 0.02936
6.84600 -0.08159
6.84800 -0.11515
6.85000 -0.03958
6.85200 0.09840
6.85400 -0.00246
6.85600 -0.03019
6.85800 -0.02566
6.86000 -0.04505
6.86200 0.02899
6.86400 -0.16786
6.86600 0.03505
6.86800 -0.06611
6.87000 -0.00036
6.87200 0.03952
6.87400 0.01489
6.87600 0.04428
6.87800 0.01187
6.88000 0.00206
6.88200 0.08094
6.88400 -0.10483
6.88600 -0.05989
6.88800 0.02401
6.89000 0.09310
6.89200 -0.02595
6.89400 -0.03168
6.89600 -0.03492
6.89800 0.00649
6.90000 0.10135
6.90200 -0.05456
6.90400 -0.01890
6.90600 -0.07230
6.90800 -0.12306
6.91000 0.04691
6.91200 -0.01219
6.91400 0.02644
6.91600 -0.05402
6.91800 -0.04957
6.92000 0.06412
6.92200 0.05893
6.92400 0.00453
6.92600 -0.02537
6.92800 -0.04572
6.93000 0.08288
6.93200 -0.00729
6.93400 0.09553
6.93600 -0.09696
6.93800 -0.02133
6.94000 0.03637
6.94200 -0.05457
6.94400 0.02027
6.94600 -0.00861
6.94800 -0.05985
6.95000 0.03969
6.95200 -0.06255
6.95400 0.05107
6.95600 0.09050
6.95800 0.04151
6.96000 -0.02188
6.96200 -0.01842
6.96400 0.03697
6.96600 0.01921
6.96800 -0.06381
6.97000 -0.05868
6.97200 -0.01134
6.97400 -0.02209
6.97600 0.02666
6.97800 -0.05706
6.98000 0.03827
6.98200 0.07471
6.98400 -0.03116
6.98600 0.07575
6.98800 0.04792
6.99000 -0.10409
6.99200 0.02072
6.99400 0.02137
6.99600 -0.06217
6.99800 -0.06162
7.00000 -0.07814
7.00200 0.06177
7.00400 -0.02966
7.00600 0.05160
7.00800 0.00004
7.01000 0.05404
7.01200 -0.13127
7.01400 0.04871
7.01600 -0.07756
7.01800 -0.06106
7.02000 0.06597
7.02200 0.07366
7.02400 0.03423
7.02600 0.03432
7.02800 0.08499
7.03000 -0.05914
7.03200 -0.02576
7.03400 0.06586
7.03600 -0.04412
7.03800 0.09191
7.04000 -0.11307
7.04200 0.03747
7.04400 -0.00942
7.04600 -0.00813
7.04800 0.14756
7.05000 0.00749
7.05200 -0.02769
7.05400 -0.00662
7.05600 0.00761
7.05800 -0.09672
7.06000 0.03334
7.06200 0.01944
7.06400 -0.15978
7.06600 0.00779
7.06800 0.00662
7.07000 0.10045
7.07200 -0.06348
7.07400 0.02335
7.07600 0.11379
7.07800 -0.04371
7.08000 0.18150
7.08200 0.05048
7.08400 -0.01394
7.08600 0.04701
7.08800 0.03449
7.09000 -0.03072
7.09200 -0.02476
7.09400 -0.03198
7.09600 -0.07631
7.09800 0.03453
7.10000 -0.04796
7.10200 -0.03985
7.10400 -0.05364
7.10600 0.03564
7.10800 -0.07099
7.11000 -0.05112
7.11200 -0.04109
7.11400 -0.00650
7.11600 -0.00387
7.11800 -0.07656
7.12000 0.03645
7.12200 0.03170
7.12400 -0.00045
7.12600 -0.02495
7.12800 0.04264
7.13000 -0.04743
7.13200 0.13369
7.13400 -0.01612
7.13600 0.04940
7.13800 -0.00088
7.14000 -0.00582
7.14200 0.03257
7.14400 0.04330
7.14600 -0.01792
7.14800 0.05639
7.15000 -0.01713
7.15200 0.02413
7.15400 0.12070
7.15600 0.00312
7.15800 0.05443
7.16000 -0.04737
7.16200 -0.05307
7.16400 -0.03875
7.16600 -0.02043
7.16800 0.05026
7.17000 0.03447
7.17200 -0.01415
7.17400 -0.21186
7.17600 0.07880
7.17800 0.03173
7.18000 -0.05988
7.18200 0.05109
7.18400 -0.08858
7.18600 -0.06109
7.18800 0.07391
7.19000 0.08080
7.19200 0.04720
7.19400 0.01515
7.19600 -0.01842
7.19800 -0.01991
7.20000 0.14160
7.20200 -0.03341
7.20400 0.01263
7.20600 0.01282
7.20800 0.07618
7.21000 0.07797
7.21200 -0.11044
7.21400 -0.02625
7.21600 0.05657
7.21800 0.04419
7.22000 0.01795
7.22200 0.05841
7.22400 0.18587
7.22600 0.01532
7.22800 -0.04263
7.23000 0.03733
7.23200 0.00259
7.23400 -0.04714
7.23600 -0.03793
7.23800 0.02706
7.24000 0.04642
7.24200 -0.02670
7.24400 -0.06019
7.24600 -0.02377
7.24800 -0.03180
7.25000 0.02020
7.25200 0.02150
7.25400 -0.03343
7.25600 -0.09506
7.25800 0.03039
7.26000 0.08210
7.26200 0.13137
7.26400 0.05852
7.26600 -0.09977
7.26800 -0.04704
7.27000 0.01280
7.27200 0.05571
7.27400 0.08205
7.27600 0.01982
7.27800 -0.00712
7.28000 0.00921
7.28200 0.11914
7.28400 0.10206
7.28600 -0.10615
7.28800 0.05280
7.29000 0.04962
7.29200 -0.05059
7.29400 -0.01845
7.29600 0.10069
7.29800 0.08316
7.30000 -0.10118
7.30200 0.06662
7.30400 0.13838
7.30600 0.03749
7.30800 0.08036
7.31000 0.04702
7.31200 0.09085
7.31400 0.18020
7.31600 0.10690
7.31800 0.03693
7.32000 0.01699
7.32200 -0.01451
7.32400 0.12258
7.32600 -0.10196
7.32800 0.02994
7.33000 -0.05048
7.33200 0.04068
7.33400 0.01196
7.33600 -0.05636
7.33800 -0.00301
7.34000 -0.10042
7.34200 0.04819
7.34400 0.04963
7.34600 0.01406
7.34800 0.08864
7.35000 0.02139
7.35200 -0.14344
7.35400 0.00464
7.35600 0.02853
7.35800 0.06761
7.36000 -0.07966
7.36200 -0.12931
7.36400 -0.01830
7.36600 -0.01934
7.36800 0.03087
7.37000 0.04621
7.37200 -0.03986
7.37400 0.03878
7.37600 0.04536
7.37800 0.03391
7.38000 0.00653
7.38200 0.01795
7.38400 -0.05099
7.38600 -0.05642
7.38800 -0.02115
7.39000 0.02303
7.39200 -0.06149
7.39400 -0.13015
7.39600 0.03568
7.39800 0.11016
7.40000 0.01559
7.40200 0.01680
7.40400 -0.05827
7.40600 -0.07928
7.40800 -0.04926
7.41000 0.07017
7.41200 -0.05951
7.41400 -0.00749
7.41600 0.04158
7.41800 -0.03869
7.42000 0.01949
7.42200 -0.03832
7.42400 -0.11812
7.42600 0.01118
7.42800 -0.01711
7.43000 0.06058
7.43200 -0.04593
7.43400 0.00033
7.43600 -0.05199
7.43800 0.08008
7.44000 -0.06058
7.44200 0.03145
7.44400 -0.08135
7.44600 0.01333
7.44800 -0.07767
7.45000 0.01546
7.45200 0.05293
7.45400 0.09253
7.45600 0.01869
7.45800 0.04058
7.46000 -0.00584
7.46200 -0.04378
7.46400 0.02155
7.46600 -0.02282
7.46800 -0.00033
7.47000 0.04982
7.47200 -0.01651
7.47400 0.05366
7.47600 -0.01924
7.47800 -0.00709
7.48000 -0.10837
7.48200 -0.02340
7.48400 0.00504
7.48600 0.04008
7.48800 -0.02836
7.49000 -0.04986
7.49200 0.06609
7.49400 0.32525
7.49600 0.65182
7.49800 1.08589
7.50000 1.47972
7.50200 1.18346
7.50400 0.50665
7.50600 0.40227
7.50800 -0.02430
7.51000 0.07313
7.51200 0.05091
7.51400 0.03041
7.51600 -0.01312
7.51800 0.04710
7.52000 0.05034
7.52200 -0.05582
7.52400 0.09500
7.52600 0.04543
7.52800 0.02372
7.53000 -0.02929
7.53200 0.00937
7.53400 -0.05714
7.53600 0.10458
7.53800 -0.04840
7.54000 0.07880
7.54200 0.10779
7.54400 -0.03312
7.54600 -0.00937
7.54800 -0.00612
7.55000 0.06237
7.55200 -0.10726
7.55400 0.01490
7.55600 0.02383
7.55800 -0.02210
7.56000 -0.07992
7.56200 -0.00685
7.56400 -0.16327
7.56600 0.00813
7.56800 0.03734
7.57000 -0.02758
7.57200 0.02377
7.57400 -0.03728
7.57600 0.03474
7.57800 0.03063
7.58000 0.07392
7.58200 -0.01505
7.58400 0.03426
7.58600 0.05486
7.58800 0.00784
7.59000 -0.04202
7.59200 0.00667
7.59400 0.00508
7.59600 0.05721
7.59800 0.11773
7.60000 -0.13837
7.60200 0.13886
7.60400 0.07337
7.60600 -0.12129
7.60800 -0.00654
7.61000 0.10277
7.61200 -0.04992
7.61400 -0.02566
7.61600 -0.09892
7.61800 0.05546
7.62000 0.10743
7.62200 -0.00553
7.62400 -0.09664
7.62600 -0.00174
7.62800 0.01315
7.63000 0.01835
7.63200 0.07533
7.63400 -0.10577
7.63600 -0.02064
7.63800 -0.02945
7.64000 -0.02806
7.64200 -0.00474
7.64400 0.06341
7.64600 -0.01373
7.64800 -0.09328
7.65000 -0.01159
7.65200 -0.03480
7.65400 -0.15030
7.65600 -0.02150
7.65800 0.02998
7.66000 0.02883
7.66200 0.04946
7.66400 0.02666
7.66600 0.10685
7.66800 -0.05936
7.67000 0.02734
7.67200 0.02341
7.67400 -0.00835
7.67600 -0.02090
7.67800 0.00996
7.68000 0.05058
7.68200 0.02737
7.68400 0.02219
7.68600 0.02337
7.68800 0.04598
7.69000 0.07280
7.69200 -0.11096
7.69400 0.03117
7.69600 -0.01799
7.69800 -0.01794
7.70000 -0.03306
7.70200 -0.03510
7.70400 0.08951
7.70600 0.05936
7.70800 0.07703
7.71000 0.03673
7.71200 0.03773
7.71400 -0.02208
7.71600 -0.01556
7.71800 -0.15909
7.72000 -0.02388
7.72200 0.02479
7.72400 -0.05214
7.72600 0.04291
7.72800 -0.01053
7.73000 0.01331
7.73200 0.14492
7.73400 0.08890
7.73600 0.09895
7.73800 0.10892
7.74000 0.07564
7.74200 0.10556
7.74400 0.08865
7.74600 -0.04174
7.74800 0.03145
7.75000 -0.01690
7.75200 -0.11702
7.75400 0.11058
7.75600 0.05832
7.75800 0.01135
7.76000 -0.00124
7.76200 0.14360
7.76400 -0.03097
7.76600 0.01087
7.76800 0.04181
7.77000 0.05676
7.77200 0.01683
7.77400 0.17430
7.77600 -0.00686
7.77800 -0.07163
7.78000 0.10560
7.78200 0.07992
7.78400 0.03665
7.78600 -0.03388
7.78800 0.05806
7.79000 0.10590
7.79200 -0.08973
7.79400 0.13435
7.79600 0.00464
7.79800 0.03530
7.80000 -0.08663
7.80200 -0.00384
7.80400 -0.01821
7.80600 -0.02957
7.80800 -0.07337
7.81000 -0.06280
7.81200 -0.08141
7.81400 0.06645
7.81600 0.04995
7.81800 0.05081
7.82000 0.04811
7.82200 -0.02299
7.82400 -0.05283
7.82600 0.06171
7.82800 -0.01853
7.83000 -0.05435
7.83200 0.05306
7.83400 0.01412
7.83600 -0.01864
7.83800 0.02604
7.84000 0.00312
7.84200 0.05367
7.84400 -0.01758
7.84600 -0.04795
7.84800 0.00478
7.85000 -0.10827
7.85200 0.08098
7.85400 -0.00954
7.85600 -0.05523
7.85800 0.04957
7.86000 0.05304
7.86200 -0.03019
7.86400 -0.08156
7.86600 0.01236
7.86800 -0.01420
7.87000 0.05336
7.87200 -0.04070
7.87400 -0.02207
7.87600 -0.03572
7.87800 0.03206
7.88000 -0.07403
7.88200 -0.00522
7.88400 -0.03125
7.88600 -0.01902
7.88800 -0.07829
7.89000 -0.00992
7.89200 -0.02107
7.89400 0.00880
7.89600 -0.01657
7.89800 -0.03478
7.90000 -0.01867
7.90200 -0.08398
7.90400 0.01864
7.90600 -0.02932
7.90800 -0.07013
7.91000 0.13348
7.91200 0.03206
7.91400 0.00021
7.91600 -0.03674
7.91800 0.09728
7.92000 -0.01259
7.92200 -0.02511
7.92400 -0.12408
7.92600 -0.01082
7.92800 0.02922
7.93000 0.04691
7.93200 0.03548
7.93400 0.15834
7.93600 0.01106
7.93800 0.10761
7.94000 0.10491
7.94200 -0.07084
7.94400 0.00603
7.94600 0.02737
7.94800 -0.03831
7.95000 0.07257
7.95200 -0.10079
7.95400 0.09411
7.95600 -0.10599
7.95800 -0.02728
7.96000 0.00989
7.96200 0.06509
7.96400 -0.00849
7.96600 -0.06658
7.96800 -0.01632
7.97000 0.10959
7.97200 -0.02752
7.97400 0.01674
7.97600 -0.02607
7.97800 0.10157
7.98000 -0.04375
7.98200 0.04140
7.98400 -0.01345
7.98600 0.05331
7.98800 0.00855
7.99000 0.05463
7.99200 -0.01405
7.99400 -0.00576
7.99600 -0.10000
7.99800 -0.01784
8.00000 -0.02531
8.00200 -0.05544
8.00400 -0.03864
8.00600 -0.05373
8.00800 0.04766
8.01000 -0.04623
8.01200 -0.09090
8.01400 -0.00343
8.01600 -0.00414
8.01800 -0.01500
8.02000 0.08733
8.02200 0.01563
8.02400 0.10238
8.02600 -0.08168
8.02800 0.07506
8.03000 -0.00498
8.03200 0.14682
8.03400 0.03924
8.03600 -0.02900
8.03800 -0.01398
8.04000 -0.02876
8.04200 -0.01092
8.04400 0.11278
8.04600 -0.00730
8.04800 -0.05876
8.05000 0.12578
8.05200 -0.01981
8.05400 0.01065
8.05600 -0.08276
8.05800 -0.00022
8.06000 -0.12695
8.06200 0.09236
8.06400 0.08180
8.06600 0.00706
8.06800 0.04783
8.07000 -0.04968
8.07200 -0.04544
8.07400 0.00299
8.07600 0.03225
8.07800 -0.00873
8.08000 -0.05990
8.08200 -0.01784
8.08400 0.03062
8.08600 0.07072
8.08800 0.01603
8.09000 -0.06596
8.09200 -0.00353
8.09400 0.02677
8.09600 -0.12169
8.09800 -0.05346
8.10000 0.01460
8.10200 0.10504
8.10400 0.06633
8.10600 -0.02086
8.10800 0.03790
8.11000 0.03403
8.11200 0.00885
8.11400 -0.09160
8.11600 0.06619
8.11800 -0.06618
8.12000 0.04595
8.12200 0.09450
8.12400 -0.00120
8.12600 0.06572
8.12800 -0.03852
8.13000 0.10297
8.13200 -0.08244
8.13400 -0.01147
8.13600 -0.00186
8.13800 -0.05484
8.14000 -0.05340
8.14200 0.00108
8.14400 0.12101
8.14600 0.06043
8.14800 -0.07512
8.15000 -0.00673
8.15200 0.09605
8.15400 0.09796
8.15600 0.01514
8.15800 -0.02490
8.16000 0.06618
8.16200 0.00147
8.16400 0.06704
8.16600 -0.06648
8.16800 -0.08093
8.17000 0.00254
8.17200 -0.08352
8.17400 0.00358
8.17600 0.14479
8.17800 -0.04572
8.18000 0.07396
8.18200 -0.08573
8.18400 0.01933
8.18600 -0.07802
8.18800 0.03248
8.19000 -0.13940
8.19200 -0.00012
8.19400 -0.01233
8.19600 0.03753
8.19800 -0.05942
8.20000 0.00127
8.20200 -0.01555
8.20400 -0.05573
8.20600 0.06908
8.20800 -0.07294
8.21000 -0.01305
8.21200 0.03631
8.21400 0.03016
8.21600 0.02828
8.21800 -0.03308
8.22000 -0.06376
8.22200 -0.13585
8.22400 -0.05423
8.22600 -0.05605
8.22800 0.04970
8.23000 0.00731
8.23200 0.16774
8.23400 -0.07765
8.23600 -0.00684
8.23800 -0.00895
8.24000 0.03759
8.24200 -0.01382
8.24400 -0.11236
8.24600 0.01492
8.24800 0.01955
8.25000 -0.10831
8.25200 -0.15830
8.25400 0.00806
8.25600 -0.00714
8.25800 0.00931
8.26000 0.03709
8.26200 -0.06145
8.26400 0.00283
8.26600 0.00171
8.26800 -0.23146
8.27000 -0.05014
8.27200 0.03729
8.27400 -0.08600
8.27600 0.09522
8.27800 0.04555
8.28000 -0.03779
8.28200 0.03229
8.28400 0.04108
8.28600 0.00492
8.28800 -0.00503
8.29000 0.01934
8.29200 -0.00030
8.29400 -0.00921
8.29600 0.07317
8.29800 0.04302
8.30000 -0.02554
8.30200 0.10109
8.30400 -0.02702
8.30600 -0.05310
8.30800 0.00289
8.31000 0.01428
8.31200 -0.14676
8.31400 -0.02546
8.31600 -0.10492
8.31800 -0.07318
8.32000 -0.10125
8.32200 -0.00873
8.32400 0.03247
8.32600 0.01960
8.32800 0.00105
8.33000 -0.10470
8.33200 0.09562
8.33400 -0.03065
8.33600 0.06586
8.33800 0.02832
8.34000 0.00766
8.34200 0.02842
8.34400 0.05017
8.34600 -0.01853
8.34800 0.05346
8.35000 -0.01871
8.35200 0.05851
8.35400 -0.07294
8.35600 -0.06864
8.35800 -0.00606
8.36000 -0.01959
8.36200 0.01708
8.36400 -0.03989
8.36600 -0.11195
8.36800 -0.03262
8.37000 0.08949
8.37200 0.00178
8.37400 0.00574
8.37600 0.11323
8.37800 0.39513
8.38000 1.18818
8.38200 1.51909
8.38400 1.23484
8.38600 0.74504
8.38800 0.29931
8.39000 0.04124
8.39200 0.03755
8.39400 -0.02153
8.39600 -0.13725
8.39800 0.07999
8.40000 -0.03912
8.40200 -0.09729
8.40400 0.05395
8.40600 0.01581
8.40800 -0.08988
8.41000 -0.06553
8.41200 -0.04738
8.41400 -0.06963
8.41600 -0.00471
8.41800 -0.02066
8.42000 -0.00808
8.42200 0.00630
8.42400 -0.01910
8.42600 0.11394
8.42800 -0.01225
8.43000 -0.05397
8.43200 -0.04917
8.43400 -0.08530
8.43600 0.03244
8.43800 0.00133
8.44000 0.08088
8.44200 0.09901
8.44400 -0.10025
8.44600 0.01482
8.44800 -0.02550
8.45000 0.02027
8.45200 -0.03253
8.45400 0.05161
8.45600 0.06731
8.45800 -0.02324
8.46000 0.03657
8.46200 0.05932
8.46400 0.00965
8.46600 0.04642
8.46800 -0.04929
8.47000 -0.02097
8.47200 -0.04955
8.47400 0.01727
8.47600 0.02034
8.47800 0.03285
8.48000 -0.04374
8.48200 0.00465
8.48400 -0.01147
8.48600 0.04124
8.48800 -0.12910
8.49000 0.05197
8.49200 -0.10220
8.49400 0.09008
8.49600 -0.02736
8.49800 -0.07256
8.50000 0.07269
8.50200 -0.02054
8.50400 0.01331
8.50600 -0.00848
8.50800 -0.04804
8.51000 0.08544
8.51200 0.06270
8.51400 0.15513
8.51600 -0.02187
8.51800 -0.05170
8.52000 -0.04024
8.52200 0.05596
8.52400 -0.13700
8.52600 0.02091
8.52800 -0.04004
8.53000 -0.06041
8.53200 -0.10614
8.53400 0.03431
8.53600 0.02147
8.53800 0.03465
8.54000 -0.04910
8.54200 0.03156
8.54400 -0.05961
8.54600 0.00311
8.54800 -0.04464
8.55000 -0.03089
8.55200 0.04267
8.55400 0.04104
8.55600 -0.07110
8.55800 -0.10467
8.56000 -0.02987
8.56200 0.12304
8.56400 -0.04731
8.56600 -0.02822
8.56800 -0.01915
8.57000 0.04142
8.57200 0.07301
8.57400 -0.03078
8.57600 0.08255
8.57800 -0.03091
8.58000 0.07587
8.58200 0.06259
8.58400 -0.07011
8.58600 0.00091
8.58800 0.04935
8.59000 0.03023
8.59200 -0.03551
8.59400 -0.04223
8.59600 0.01693
8.59800 -0.03496
8.60000 0.08474
8.60200 0.03443
8.60400 0.02693
8.60600 -0.03569
8.60800 0.06991
8.61000 -0.06297
8.61200 0.02546
8.61400 0.05202
8.61600 0.01275
8.61800 0.00430
8.62000 -0.11675
8.62200 -0.03939
8.62400 0.01466
8.62600 0.10185
8.62800 -0.08701
8.63000 0.03087
8.63200 -0.07043
8.63400 0.09610
8.63600 -0.00789
8.63800 -0.02576
8.64000 -0.08143
8.64200 -0.08509
8.64400 0.01771
8.64600 0.00656
8.64800 -0.02154
8.65000 -0.00338
8.65200 -0.02814
8.65400 -0.02092
8.65600 -0.00610
8.65800 0.00660
8.66000 0.04191
8.66200 -0.03727
8.66400 0.03328
8.66600 -0.08161
8.66800 -0.07931
8.67000 -0.01088
8.67200 -0.01820
8.67400 0.01155
8.67600 0.00291
8.67800 -0.07019
8.68000 0.05734
8.68200 -0.05291
8.68400 -0.07682
8.68600 0.02372
8.68800 -0.06038
8.69000 0.04014
8.69200 -0.01566
8.69400 -0.07205
8.69600 0.06497
8.69800 0.04070
8.70000 -0.06944
8.70200 -0.07648
8.70400 -0.11605
8.70600 -0.12722
8.70800 0.02166
8.71000 0.03134
8.71200 0.03952
8.71400 -0.05065
8.71600 -0.03950
8.71800 0.02863
8.72000 0.05158
8.72200 0.02120
8.72400 -0.01779
8.72600 -0.05243
8.72800 0.02551
8.73000 -0.05944
8.73200 0.07515
8.73400 -0.01170
8.73600 -0.05558
8.73800 0.06365
8.74000 -0.06032
8.74200 0.01848
8.74400 0.10405
8.74600 0.07993
8.74800 -0.05024
8.75000 -0.05242
8.75200 0.04386
8.75400 -0.03118
8.75600 -0.01965
8.75800 0.02312
8.76000 0.03317
8.76200 0.03230
8.76400 -0.10720
8.76600 0.09005
8.76800 0.04008
8.77000 0.03405
8.77200 -0.05329
8.77400 0.08545
8.77600 0.01670
8.77800 0.07134
8.78000 0.00966
8.78200 0.01584
8.78400 -0.01046
8.78600 0.02340
8.78800 -0.02619
8.79000 -0.01379
8.79200 -0.06831
8.79400 0.00796
8.79600 0.09666
8.79800 0.06447
8.80000 -0.00925
8.80200 -0.01671
8.80400 -0.05867
8.80600 0.05864
8.80800 0.02763
8.81000 0.06602
8.81200 -0.06937
8.81400 -0.04938
8.81600 -0.03244
8.81800 0.07988
8.82000 -0.06889
8.82200 -0.02421
8.82400 -0.04672
8.82600 -0.04874
8.82800 -0.08229
8.83000 0.01669
8.83200 0.01441
8.83400 -0.00989
8.83600 -0.05378
8.83800 -0.02285
8.84000 0.06531
8.84200 0.01247
8.84400 0.05163
8.84600 0.00321
8.84800 -0.04885
8.85000 -0.02592
8.85200 -0.12449
8.85400 0.04751
8.85600 -0.03939
8.85800 0.03478
8.86000 -0.07615
8.86200 -0.03331
8.86400 -0.12476
8.86600 -0.06830
8.86800 0.06870
8.87000 -0.05372
8.87200 -0.02859
8.87400 0.04276
8.87600 0.03419
8.87800 -0.03547
8.88000 -0.05959
8.88200 0.01791
8.88400 -0.05594
8.88600 -0.04925
8.88800 -0.03897
8.89000 0.05767
8.89200 -0.05362
8.89400 0.07438
8.89600 0.06563
8.89800 -0.01329
8.90000 -0.02754
8.90200 -0.07838
8.90400 0.02384
8.90600 -0.04588
8.90800 0.06291
8.91000 -0.07544
8.91200 0.01835
8.91400 -0.00656
8.91600 -0.04956
8.91800 0.02879
8.92000 0.10860
8.92200 -0.00656
8.92400 -0.01120
8.92600 0.00770
8.92800 -0.08902
8.93000 -0.02548
8.93200 -0.01932
8.93400 -0.01283
8.93600 0.00551
8.93800 0.08223
8.94000 0.00329
8.94200 0.03594
8.94400 0.05522
8.94600 -0.01894
8.94800 -0.08911
8.95000 0.05022
8.95200 -0.05603
8.95400 0.00628
8.95600 0.04915
8.95800 0.03954
8.96000 0.03042
8.96200 0.03889
8.96400 -0.00598
8.96600 0.05684
8.96800 -0.18673
8.97000 0.00413
8.97200 -0.04834
8.97400 -0.11117
8.97600 0.08841
8.97800 0.09215
8.98000 0.02781
8.98200 -0.07806
8.98400 -0.08947
8.98600 -0.03276
8.98800 0.02594
8.99000 -0.06416
8.99200 -0.03716
8.99400 -0.06003
8.99600 0.03526
8.99800 -0.03332
9.00000 0.05346
9.00200 -0.06095
9.00400 0.01659
9.00600 -0.03317
9.00800 -0.00299
9.01000 -0.07511
9.01200 -0.05425
9.01400 0.04551
9.01600 0.05385
9.01800 -0.10709
9.02000 0.05174
9.02200 -0.01977
9.02400 -0.10987
9.02600 -0.03848
9.02800 -0.00997
9.03000 -0.09985
9.03200 -0.06573
9.03400 0.02276
9.03600 0.01239
9.03800 -0.03500
9.04000 -0.03984
9.04200 -0.08603
9.04400 0.03082
9.04600 0.11126
9.04800 -0.02292
9.05000 0.01356
9.05200 -0.00751
9.05400 -0.01434
9.05600 0.05469
9.05800 -0.05435
9.06000 -0.03688
9.06200 -0.05633
9.06400 0.13206
9.06600 -0.05918
9.06800 -0.08451
9.07000 -0.06193
9.07200 0.03636
9.07400 -0.07440
9.07600 0.03789
9.07800 -0.07241
9.08000 0.01919
9.08200 0.01902
9.08400 0.00290
9.08600 0.00204
9.08800 0.08776
9.09000 0.00739
9.09200 0.06464
9.09400 0.06537
9.09600 0.01761
9.09800 0.02135
9.10000 -0.01829
9.10200 -0.03418
9.10400 -0.08796
9.10600 -0.01280
9.10800 -0.03127
9.11000 0.02330
9.11200 0.06853
9.11400 0.02575
9.11600 -0.00649
9.11800 -0.09612
9.12000 0.08093
9.12200 -0.12632
9.12400 0.01817
9.12600 -0.02771
9.12800 0.02069
9.13000 0.00132
9.13200 -0.08066
9.13400 -0.02426
9.13600 -0.01748
9.13800 0.09842
9.14000 0.06928
9.14200 -0.11090
9.14400 0.00226
9.14600 0.01618
9.14800 -0.03893
9.15000 -0.05160
9.15200 0.08795
9.15400 0.06750
9.15600 -0.11908
9.15800 -0.05762
9.16000 0.10000
9.16200 0.05386
9.16400 -0.11006
9.16600 0.03912
9.16800 0.08871
9.17000 0.10559
9.17200 -0.01493
9.17400 -0.03321
9.17600 0.07242
9.17800 0.01995
9.18000 -0.10261
9.18200 0.02397
9.18400 0.08427
9.18600 -0.05972
9.18800 0.07154
9.19000 0.06653
9.19200 -0.08308
9.19400 -0.01066
9.19600 0.03986
9.19800 -0.08387
9.20000 0.02632
9.20200 -0.00267
9.20400 0.06983
9.20600 -0.02172
9.20800 -0.01701
9.21000 -0.13449
9.21200 -0.05844
9.21400 -0.00817
9.21600 -0.03553
9.21800 0.05376
9.22000 -0.00607
9.22200 -0.03587
9.22400 -0.11773
9.22600 0.06852
9.22800 -0.05075
9.23000 0.02352
9.23200 0.04986
9.23400 0.00192
9.23600 -0.01544
9.23800 0.10500
9.24000 -0.03751
9.24200 0.05308
9.24400 0.06902
9.24600 0.09167
9.24800 -0.07587
9.25000 -0.05761
9.25200 0.05227
9.25400 -0.02230
9.25600 0.07211
9.25800 0.04574
9.26000 0.48151
9.26200 0.93084
9.26400 1.31085
9.26600 1.33897
9.26800 0.81802
9.27000 0.29100
9.27200 0.03730
9.27400 0.03672
9.27600 0.01573
9.27800 0.01101
9.28000 0.03170
9.28200 -0.03262
9.28400 0.00485
9.28600 0.00515
9.28800 -0.05329
9.29000 0.08468
9.29200 0.06351
9.29400 0.04223
9.29600 0.05310
9.29800 -0.09357
9.30000 -0.00489
9.30200 -0.08407
9.30400 0.00441
9.30600 -0.02664
9.30800 -0.01537
9.31000 0.01738
9.31200 0.03525
9.31400 0.06757
9.31600 -0.00641
9.31800 0.00652
9.32000 0.04576
9.32200 0.10271
9.32400 -0.08476
9.32600 -0.02736
9.32800 -0.10865
9.33000 -0.05361
9.33200 0.05613
9.33400 -0.09332
9.33600 0.06861
9.33800 0.06633
9.34000 -0.00277
9.34200 0.04158
9.34400 0.02757
9.34600 0.04291
9.34800 0.03646
9.35000 -0.00624
9.35200 -0.12589
9.35400 -0.00708
9.35600 0.01501
9.35800 -0.09369
9.36000 -0.03054
9.36200 -0.02307
9.36400 -0.03792
9.36600 0.06395
9.36800 0.12332
9.37000 0.03567
9.37200 -0.08450
9.37400 0.09358
9.37600 -0.00546
9.37800 0.13629
9.38000 0.05063
9.38200 0.03913
9.38400 -0.03446
9.38600 0.04559
9.38800 0.00921
9.39000 -0.09539
9.39200 0.10777
9.39400 -0.05397
9.39600 0.08428
9.39800 0.09853
9.40000 0.01334
9.40200 0.04553
9.40400 -0.06689
9.40600 -0.07367
9.40800 -0.03448
9.41000 0.05392
9.41200 -0.04806
9.41400 0.03423
9.41600 0.04595
9.41800 0.03108
9.42000 0.06645
9.42200 -0.15391
9.42400 -0.02595
9.42600 0.02140
9.42800 0.02284
9.43000 0.03997
9.43200 0.00550
9.43400 -0.04597
9.43600 -0.04060
9.43800 -0.11018
9.44000 -0.09932
9.44200 -0.02397
9.44400 -0.02336
9.44600 -0.13537
9.44800 -0.00053
9.45000 0.03826
9.45200 -0.01035
9.45400 0.07367
9.45600 0.02450
9.45800 0.02423
9.46000 0.02838
9.46200 0.01483
9.46400 0.01071
9.46600 0.08140
9.46800 -0.08692
9.47000 0.00933
9.47200 0.09385
9.47400 -0.06103
9.47600 -0.08576
9.47800 0.13031
9.48000 0.06305
9.48200 0.00246
9.48400 0.04564
9.48600 0.12053
9.48800 -0.01090
9.49000 0.00436
9.49200 0.02957
9.49400 -0.04142
9.49600 0.04684
9.49800 -0.08110
9.50000 0.00183
9.50200 -0.07278
9.50400 0.13591
9.50600 -0.06726
9.50800 -0.11506
9.51000 0.06827
9.51200 0.03098
9.51400 0.06182
9.51600 -0.01836
9.51800 -0.10194
9.52000 -0.01381
9.52200 0.07568
9.52400 -0.07365
9.52600 -0.00361
9.52800 0.01578
9.53000 -0.15104
9.53200 0.07918
9.53400 0.00844
9.53600 0.06530
9.53800 -0.04049
9.54000 0.02590
9.54200 0.06510
9.54400 0.03191
9.54600 -0.00322
9.54800 -0.03360
9.55000 0.00952
9.55200 -0.01406
9.55400 -0.00605
9.55600 -0.02352
9.55800 -0.10690
9.56000 0.07962
9.56200 -0.12114
9.56400 0.02291
9.56600 0.00615
9.56800 -0.06818
9.57000 0.07955
9.57200 -0.00184
9.57400 -0.03330
9.57600 0.17959
9.57800 -0.05467
9.58000 0.11796
9.58200 -0.03550
9.58400 -0.04125
9.58600 -0.00724
9.58800 -0.01840
9.59000 0.01052
9.59200 0.06240
9.59400 -0.00205
9.59600 -0.06057
9.59800 -0.08336
9.60000 -0.06884
9.60200 -0.09335
9.60400 0.03058
9.60600 0.00883
9.60800 0.05479
9.61000 -0.05910
9.61200 -0.06166
9.61400 0.03521
9.61600 -0.08938
9.61800 -0.11010
9.62000 -0.04272
9.62200 0.10758
9.62400 -0.04452
9.62600 -0.12222
9.62800 -0.06962
9.63000 -0.02679
9.63200 0.00243
9.63400 0.01837
9.63600 -0.01341
9.63800 0.03141
9.64000 -0.06633
9.64200 0.08276
9.64400 -0.02948
9.64600 0.01880
9.64800 -0.01520
9.65000 0.00476
9.65200 -0.06747
9.65400 -0.00688
9.65600 0.08315
9.65800 -0.01310
9.66000 -0.11562
9.66200 -0.09849
9.66400 -0.07741
9.66600 0.04646
9.66800 0.12546
9.67000 -0.04843
9.67200 -0.07304
9.67400 0.02516
9.67600 -0.03816
9.67800 0.12600
9.68000 -0.09680
9.68200 0.00473
9.68400 -0.02095
9.68600 0.01376
9.68800 -0.13779
9.69000 0.03744
9.69200 -0.07766
9.69400 0.02436
9.69600 0.01524
9.69800 0.03994
9.70000 -0.03980
9.70200 0.07401
9.70400 0.00371
9.70600 0.07478
9.70800 -0.00435
9.71000 0.05053
9.71200 0.02619
9.71400 0.07440
9.71600 0.09056
9.71800 0.08563
9.72000 -0.01830
9.72200 0.01297
9.72400 0.04326
9.72600 0.03399
9.72800 -0.02133
9.73000 0.03227
9.73200 0.08426
9.73400 -0.09812
9.73600 -0.04134
9.73800 -0.06473
9.74000 0.05604
9.74200 -0.03805
9.74400 0.04541
9.74600 -0.11889
9.74800 0.00264
9.75000 -0.04011
9.75200 -0.08865
9.75400 -0.00127
9.75600 -0.15314
9.75800 -0.01402
9.76000 -0.09701
9.76200 0.10474
9.76400 0.01386
9.76600 0.07444
9.76800 -0.09573
9.77000 -0.01395
9.77200 0.07370
9.77400 0.00013
9.77600 0.01559
9.77800 0.03735
9.78000 0.03248
9.78200 0.01274
9.78400 0.09546
9.78600 0.07573
9.78800 0.07732
9.79000 -0.01590
9.79200 -0.02709
9.79400 -0.07271
9.79600 0.06760
9.79800 -0.04976
9.80000 0.02470
9.80200 -0.02651
9.80400 -0.05743
9.80600 -0.03535
9.80800 0.08782
9.81000 0.03214
9.81200 -0.07063
9.81400 -0.02964
9.81600 0.00177
9.81800 -0.06911
9.82000 0.08092
9.82200 -0.00853
9.82400 -0.18068
9.82600 -0.04432
9.82800 -0.01188
9.83000 -0.02860
9.83200 0.06026
9.83400 0.02880
9.83600 0.01047
9.83800 0.13998
9.84000 0.03049
9.84200 -0.04447
9.84400 -0.00457
9.84600 0.01295
9.84800 -0.07116
9.85000 -0.04994
9.85200 0.01024
9.85400 -0.03221
9.85600 -0.09654
9.85800 0.10709
9.86000 0.00474
9.86200 -0.04296
9.86400 -0.10061
9.86600 0.00031
9.86800 -0.02369
9.87000 -0.07589
9.87200 -0.03740
9.87400 -0.06238
9.87600 0.05911
9.87800 0.01244
9.88000 -0.09312
9.88200 -0.03752
9.88400 -0.01902
9.88600 0.04068
9.88800 -0.00412
9.89000 -0.02204
9.89200 -0.07598
9.89400 -0.02453
9.89600 0.17163
9.89800 0.07264
9.90000 -0.06376
9.90200 -0.01001
9.90400 0.06326
9.90600 -0.01610
9.90800 -0.04498
9.91000 0.00285
9.91200 0.02166
9.91400 -0.08216
9.91600 0.08390
9.91800 -0.01171
9.92000 -0.00942
9.92200 -0.01126
9.92400 0.02730
9.92600 0.01128
9.92800 -0.00100
9.93000 0.00315
9.93200 0.04678
9.93400 0.04179
9.93600 -0.10502
9.93800 0.06364
9.94000 -0.07694
9.94200 0.05828
9.94400 0.01552
9.94600 -0.07420
9.94800 0.07388
9.95000 0.00428
9.95200 0.05463
9.95400 0.03711
9.95600 -0.05796
9.95800 -0.00646
9.96000 -0.02692
9.96200 -0.00630
9.96400 0.03395
9.96600 -0.04971
9.96800 0.01408
9.97000 -0.01098
9.97200 -0.11016
9.97400 -0.03734
9.97600 0.03552
9.97800 -0.02830
9.98000 0.01542
9.98200 -0.02149
9.98400 -0.05758
9.98600 -0.03280
9.98800 0.02339
9.99000 -0.00095
9.99200 -0.06110
9.99400 -0.03582
9.99600 0.00267
9.99800 -0.03690
