cas[s]  ekg[mV]
0.00000 0.02851
0.00200 0.09356
0.00400 -0.05250
0.00600 -0.00231
0.00800 0.03661
0.01000 -0.07108
0.01200 -0.04307
0.01400 -0.00138
0.01600 -0.06730
0.01800 -0.03647
0.02000 0.01994
0.02200 0.00017
0.02400 0.00823
0.02600 -0.02034
0.02800 -0.12491
0.03000 -0.03518
0.03200 0.04444
0.03400 -0.01695
0.03600 -0.00876
0.03800 -0.01746
0.04000 -0.02256
0.04200 0.12497
0.04400 0.08944
0.04600 -0.12646
0.04800 -0.01586
0.05000 -0.07447
0.05200 -0.03548
0.05400 0.04261
0.05600 0.01556
0.05800 -0.06409
0.06000 -0.00705
0.06200 -0.04912
0.06400 0.14703
0.06600 -0.04740
0.06800 -0.01614
0.07000 0.04451
0.07200 0.05024
0.07400 0.02872
0.07600 -0.08999
0.07800 -0.08367
0.08000 0.08557
0.08200 0.09536
0.08400 -0.01766
0.08600 0.08481
0.08800 -0.03589
0.09000 -0.08404
0.09200 0.03599
0.09400 -0.01340
0.09600 -0.09181
0.09800 -0.01350
0.10000 0.00309
0.10200 0.09862
0.10400 0.03358
0.10600 -0.07096
0.10800 0.00758
0.11000 0.00650
0.11200 -0.04665
0.11400 -0.00577
0.11600 0.02080
0.11800 -0.04359
0.12000 0.04190
0.12200 0.05059
0.12400 0.01922
0.12600 0.07755
0.12800 0.04292
0.13000 -0.01014
0.13200 0.02042
0.13400 0.08738
0.13600 0.00658
0.13800 -0.03123
0.14000 -0.04344
0.14200 -0.03620
0.14400 -0.04451
0.14600 0.03324
0.14800 0.01591
0.15000 0.00332
0.15200 0.05890
0.15400 -0.00232
0.15600 -0.03557
0.15800 -0.04493
0.16000 0.08248
0.16200 0.03255
0.16400 0.03625
0.16600 0.01554
0.16800 -0.05116
0.17000 -0.04065
0.17200 -0.00434
0.17400 -0.07585
0.17600 -0.06012
0.17800 -0.03566
0.18000 0.06099
0.18200 0.00040
0.18400 0.00836
0.18600 0.01527
0.18800 0.00450
0.19000 -0.07612
0.19200 -0.03035
0.19400 -0.06596
0.19600 0.02970
0.19800 0.05114
0.20000 0.02587
0.20200 0.04747
0.20400 0.13474
0.20600 0.04138
0.20800 0.01130
0.21000 0.05069
0.21200 0.06578
0.21400 0.03395
0.21600 0.00138
0.21800 -0.09688
0.22000 0.12533
0.22200 0.01733
0.22400 0.06048
0.22600 -0.02680
0.22800 0.07799
0.23000 -0.12329
0.23200 -0.07228
0.23400 0.03445
0.23600 0.00089
0.23800 0.08771
0.24000 0.09262
0.24200 -0.00103
0.24400 0.03626
0.24600 0.05586
0.24800 -0.07561
0.25000 -0.02834
0.25200 -0.03822
0.25400 -0.11693
0.25600 0.05240
0.25800 0.02631
0.26000 -0.04309
0.26200 0.05675
0.26400 -0.00937
0.26600 0.10390
0.26800 0.01159
0.27000 0.02004
0.27200 -0.03349
0.27400 -0.00235
0.27600 -0.07044
0.27800 0.06448
0.28000 0.03083
0.28200 -0.04462
0.28400 -0.02467
0.28600 0.00864
0.28800 0.05079
0.29000 -0.18570
0.29200 0.04380
0.29400 -0.02111
0.29600 -0.03123
0.29800 -0.02018
0.30000 0.09134
0.30200 0.04193
0.30400 -0.02457
0.30600 0.01305
0.30800 0.03226
0.31000 0.00160
0.31200 0.00660
0.31400 -0.00715
0.31600 -0.02757
0.31800 0.02668
0.32000 -0.03428
0.32200 0.01817
0.32400 0.14691
0.32600 0.02105
0.32800 0.05083
0.33000 -0.12016
0.33200 0.00350
0.33400 -0.01428
0.33600 0.06653
0.33800 0.03213
0.34000 0.00180
0.34200 0.04525
0.34400 0.04294
0.34600 -0.07062
0.34800 0.05777
0.35000 -0.02713
0.35200 0.03978
0.35400 0.10464
0.35600 -0.01930
0.35800 0.04595
0.36000 -0.12124
0.36200 -0.01038
0.36400 0.11307
0.36600 0.09548
0.36800 -0.07622
0.37000 -0.04087
0.37200 0.04812
0.37400 -0.00771
0.37600 0.12131
0.37800 -0.05536
0.38000 -0.03345
0.38200 0.02206
0.38400 -0.13661
0.38600 -0.06410
0.38800 0.08031
0.39000 0.05492
0.39200 0.10699
0.39400 0.06801
0.39600 0.01289
0.39800 -0.00104
0.40000 -0.05387
0.40200 -0.04037
0.40400 -0.09901
0.40600 0.03453
0.40800 -0.02457
0.41000 0.02823
0.41200 -0.01617
0.41400 -0.07647
0.41600 0.03784
0.41800 0.06370
0.42000 0.01213
0.42200 0.11735
0.42400 0.00807
0.42600 0.06201
0.42800 0.07362
0.43000 -0.08615
0.43200 0.03794
0.43400 0.04744
0.43600 0.11495
0.43800 0.04926
0.44000 0.12495
0.44200 0.24124
0.44400 0.63098
0.44600 1.23677
0.44800 1.31426
0.45000 1.23245
0.45200 0.54279
0.45400 0.29650
0.45600 0.11943
0.45800 0.07223
0.46000 -0.02125
0.46200 0.01084
0.46400 0.08269
0.46600 0.11131
0.46800 -0.01532
0.47000 0.06744
0.47200 -0.03667
0.47400 -0.03829
0.47600 0.08938
0.47800 0.00461
0.48000 -0.01706
0.48200 0.01137
0.48400 -0.02729
0.48600 -0.04059
0.48800 0.07285
0.49000 -0.12505
0.49200 -0.05637
0.49400 -0.01879
0.49600 0.03838
0.49800 0.00723
0.50000 0.01464
0.50200 0.11935
0.50400 0.11901
0.50600 -0.04725
0.50800 -0.04097
0.51000 -0.03956
0.51200 -0.03666
0.51400 -0.05991
0.51600 0.00306
0.51800 0.01773
0.52000 0.01417
0.52200 -0.04070
0.52400 -0.02224
0.52600 0.17121
0.52800 -0.00389
0.53000 0.00378
0.53200 -0.06999
0.53400 0.04453
0.53600 -0.01487
0.53800 -0.11008
0.54000 0.02322
0.54200 0.07195
0.54400 -0.01510
0.54600 0.06600
0.54800 0.02537
0.55000 0.01595
0.55200 -0.04145
0.55400 0.02363
0.55600 -0.00110
0.55800 0.05296
0.56000 -0.05664
0.56200 0.00226
0.56400 -0.05405
0.56600 -0.04815
0.56800 0.00237
0.57000 -0.06554
0.57200 0.00918
0.57400 0.10847
0.57600 0.05621
0.57800 -0.00139
0.58000 -0.12091
0.58200 0.00854
0.58400 -0.01697
0.58600 -0.00667
0.58800 -0.02646
0.59000 -0.00189
0.59200 0.01473
0.59400 0.08103
0.59600 0.05057
0.59800 -0.00581
0.60000 0.00378
0.60200 -0.07599
0.60400 -0.03650
0.60600 0.06555
0.60800 0.02153
0.61000 -0.00883
0.61200 -0.01537
0.61400 -0.06479
0.61600 0.05352
0.61800 -0.05780
0.62000 0.06685
0.62200 0.00392
0.62400 0.00311
0.62600 0.02250
0.62800 -0.03244
0.63000 -0.07684
0.63200 -0.14540
0.63400 -0.07099
0.63600 0.09028
0.63800 -0.03038
0.64000 0.04955
0.64200 0.01912
0.64400 0.03088
0.64600 0.01667
0.64800 0.08083
0.65000 -0.02204
0.65200 -0.00811
0.65400 0.04667
0.65600 -0.07468
0.65800 -0.09481
0.66000 -0.03523
0.66200 0.01728
0.66400 -0.09699
0.66600 0.00779
0.66800 -0.03375
0.67000 0.00938
0.67200 0.02346
0.67400 -0.01933
0.67600 -0.00087
0.67800 -0.00916
0.68000 -0.02078
0.68200 0.10846
0.68400 0.06524
0.68600 -0.10133
0.68800 0.07380
0.69000 -0.03759
0.69200 0.02491
0.69400 -0.09936
0.69600 -0.07380
0.69800 -0.05294
0.70000 -0.12318
0.70200 0.01812
0.70400 0.00832
0.70600 -0.00219
0.70800 0.01180
0.71000 0.02548
0.71200 -0.12567
0.71400 0.09129
0.71600 0.04863
0.71800 0.07100
0.72000 -0.00947
0.72200 -0.05893
0.72400 -0.09479
0.72600 -0.00269
0.72800 0.01689
0.73000 -0.06141
0.73200 0.00970
0.73400 0.04765
0.73600 0.01038
0.73800 0.01388
0.74000 0.05623
0.74200 -0.02973
0.74400 -0.00066
0.74600 -0.00217
0.74800 -0.00498
0.75000 -0.01288
0.75200 -0.12274
0.75400 0.00687
0.75600 -0.04575
0.75800 -0.05632
0.76000 -0.00990
0.76200 -0.03760
0.76400 0.01762
0.76600 0.04595
0.76800 0.04079
0.77000 0.01158
0.77200 0.05404
0.77400 0.07441
0.77600 -0.00275
0.77800 0.03031
0.78000 0.09030
0.78200 0.00277
0.78400 0.00933
0.78600 -0.11140
0.78800 0.05188
0.79000 0.09333
0.79200 0.03537
0.79400 0.00103
0.79600 0.11821
0.79800 0.00574
0.80000 0.05585
0.80200 0.01666
0.80400 -0.00949
0.80600 -0.05544
0.80800 0.06035
0.81000 -0.00659
0.81200 -0.01735
0.81400 0.04654
0.81600 0.02092
0.81800 -0.10844
0.82000 0.12573
0.82200 -0.06284
0.82400 0.15148
0.82600 0.02819
0.82800 -0.01040
0.83000 0.02378
0.83200 -0.03088
0.83400 -0.02909
0.83600 0.09330
0.83800 0.01201
0.84000 -0.07612
0.84200 0.07147
0.84400 -0.07959
0.84600 0.00671
0.84800 -0.05113
0.85000 0.06364
0.85200 0.03892
0.85400 -0.01962
0.85600 0.00554
0.85800 -0.05831
0.86000 -0.06845
0.86200 0.11117
0.86400 -0.00185
0.86600 0.04257
0.86800 -0.05270
0.87000 -0.01594
0.87200 -0.04330
0.87400 -0.06096
0.87600 -0.02520
0.87800 0.01494
0.88000 -0.06955
0.88200 0.10417
0.88400 -0.07679
0.88600 -0.07686
0.88800 0.04426
0.89000 -0.10877
0.89200 0.10582
0.89400 -0.01891
0.89600 0.06417
0.89800 -0.09887
0.90000 0.11797
0.90200 0.06727
0.90400 -0.00251
0.90600 -0.03417
0.90800 0.11500
0.91000 -0.00676
0.91200 -0.04792
0.91400 -0.04123
0.91600 0.00363
0.91800 -0.04935
0.92000 0.01146
0.92200 0.00347
0.92400 0.02340
0.92600 0.03186
0.92800 -0.08866
0.93000 0.12398
0.93200 -0.09360
0.93400 0.00706
0.93600 0.09031
0.93800 -0.07948
0.94000 -0.03536
0.94200 -0.05214
0.94400 -0.07924
0.94600 0.04226
0.94800 -0.02169
0.95000 -0.04924
0.95200 0.00293
0.95400 -0.05421
0.95600 -0.04518
0.95800 0.01995
0.96000 0.01721
0.96200 0.11837
0.96400 -0.04426
0.96600 -0.02466
0.96800 -0.03190
0.97000 0.00996
0.97200 0.09359
0.97400 0.00367
0.97600 0.06181
0.97800 0.02806
0.98000 -0.02959
0.98200 0.06040
0.98400 0.05681
0.98600 0.00411
0.98800 0.04035
0.99000 -0.03453
0.99200 -0.03949
0.99400 -0.09213
0.99600 -0.00790
0.99800 0.07769
1.00000 0.01882
1.00200 -0.03858
1.00400 0.00156
1.00600 0.04434
1.00800 -0.03625
1.01000 -0.10625
1.01200 -0.04891
1.01400 0.01892
1.01600 -0.00374
1.01800 0.01733
1.02000 -0.00880
1.02200 0.01364
1.02400 -0.10114
1.02600 0.07456
1.02800 -0.07251
1.03000 -0.01294
1.03200 -0.12556
1.03400 0.08031
1.03600 0.06117
1.03800 0.04701
1.04000 -0.04934
1.04200 -0.01493
1.04400 -0.07216
1.04600 0.02609
1.04800 0.04916
1.05000 0.06005
1.05200 0.07009
1.05400 -0.03590
1.05600 -0.03977
1.05800 0.02205
1.06000 -0.02417
1.06200 -0.10336
1.06400 -0.02344
1.06600 0.02245
1.06800 0.10999
1.07000 0.07999
1.07200 -0.09712
1.07400 -0.03844
1.07600 -0.10569
1.07800 -0.04014
1.08000 0.01805
1.08200 0.02020
1.08400 -0.05657
1.08600 -0.00978
1.08800 0.00732
1.09000 0.00484
1.09200 -0.00922
1.09400 -0.05117
1.09600 -0.13627
1.09800 0.00900
1.10000 -0.02341
1.10200 0.03672
1.10400 0.11207
1.10600 -0.02482
1.10800 0.04019
1.11000 0.04128
1.11200 -0.02089
1.11400 -0.03310
1.11600 0.14637
1.11800 -0.04247
1.12000 -0.04708
1.12200 0.08840
1.12400 -0.08983
1.12600 -0.06187
1.12800 0.00592
1.13000 0.01825
1.13200 0.03460
1.13400 -0.01281
1.13600 0.03485
1.13800 0.05531
1.14000 -0.08901
1.14200 -0.09465
1.14400 -0.01173
1.14600 -0.01652
1.14800 -0.02773
1.15000 0.10804
1.15200 0.08960
1.15400 0.01109
1.15600 0.03161
1.15800 0.02643
1.16000 0.03250
1.16200 -0.05205
1.16400 -0.05251
1.16600 0.03633
1.16800 0.01657
1.17000 0.09794
1.17200 -0.03908
1.17400 -0.01596
1.17600 0.06420
1.17800 0.07511
1.18000 -0.01087
1.18200 -0.01705
1.18400 0.00880
1.18600 0.02599
1.18800 0.10722
1.19000 0.09908
1.19200 -0.01533
1.19400 -0.06067
1.19600 0.01553
1.19800 -0.05437
1.20000 -0.03511
1.20200 0.02529
1.20400 0.02375
1.20600 -0.00037
1.20800 -0.00187
1.21000 -0.02071
1.21200 -0.08769
1.21400 0.02055
1.21600 0.05104
1.21800 -0.01487
1.22000 -0.01059
1.22200 0.09423
1.22400 -0.05088
1.22600 -0.04309
1.22800 -0.06044
1.23000 -0.00479
1.23200 0.11898
1.23400 0.05948
1.23600 -0.02727
1.23800 0.07032
1.24000 -0.04785
1.24200 -0.04389
1.24400 0.09315
1.24600 0.02964
1.24800 0.00902
1.25000 0.07978
1.25200 0.04829
1.25400 0.03844
1.25600 -0.09218
1.25800 0.08320
1.26000 0.05186
1.26200 0.07629
1.26400 -0.03103
1.26600 -0.05390
1.26800 0.01759
1.27000 -0.03313
1.27200 0.02252
1.27400 -0.00348
1.27600 -0.03875
1.27800 0.05718
1.28000 -0.04535
1.28200 -0.00269
1.28400 -0.01844
1.28600 0.02589
1.28800 -0.14146
1.29000 -0.12010
1.29200 -0.04830
1.29400 -0.00697
1.29600 -0.07063
1.29800 -0.04385
1.30000 0.00954
1.30200 -0.03248
1.30400 -0.09658
1.30600 -0.04935
1.30800 -0.01036
1.31000 -0.02436
1.31200 -0.02376
1.31400 0.05307
1.31600 0.18297
1.31800 0.07593
1.32000 0.06555
1.32200 -0.08616
1.32400 -0.11076
1.32600 -0.03981
1.32800 0.16787
1.33000 -0.01183
1.33200 -0.07386
1.33400 0.00343
1.33600 0.05677
1.33800 0.30929
1.34000 0.85457
1.34200 1.34834
1.34400 1.55641
1.34600 0.97958
1.34800 0.43710
1.35000 0.14073
1.35200 0.01779
1.35400 0.04966
1.35600 -0.04548
1.35800 0.10872
1.36000 -0.00867
1.36200 -0.05755
1.36400 -0.01360
1.36600 0.04520
1.36800 0.03907
1.37000 0.05477
1.37200 -0.02130
1.37400 -0.01696
1.37600 0.00828
1.37800 0.07141
1.38000 0.00976
1.38200 -0.08078
1.38400 -0.02673
1.38600 0.07449
1.38800 0.05759
1.39000 -0.02240
1.39200 0.01232
1.39400 0.09153
1.39600 0.08781
1.39800 0.13148
1.40000 0.06073
1.40200 0.00539
1.40400 -0.07807
1.40600 -0.00699
1.40800 -0.05737
1.41000 0.00966
1.41200 0.02095
1.41400 -0.02469
1.41600 -0.07447
1.41800 -0.08286
1.42000 0.13567
1.42200 0.03721
1.42400 -0.00580
1.42600 0.03923
1.42800 0.04115
1.43000 -0.00754
1.43200 -0.02954
1.43400 0.10470
1.43600 -0.05562
1.43800 0.01496
1.44000 0.00365
1.44200 -0.00090
1.44400 0.00092
1.44600 0.00219
1.44800 0.01303
1.45000 0.03162
1.45200 0.06302
1.45400 0.03019
1.45600 0.00066
1.45800 -0.04960
1.46000 -0.04046
1.46200 -0.01270
1.46400 -0.07198
1.46600 0.13972
1.46800 -0.02224
1.47000 0.02903
1.47200 -0.10115
1.47400 -0.05424
1.47600 0.01048
1.47800 -0.08638
1.48000 -0.05020
1.48200 -0.03606
1.48400 0.06741
1.48600 0.07920
1.48800 -0.03709
1.49000 0.00821
1.49200 -0.00403
1.49400 -0.03043
1.49600 -0.04311
1.49800 0.01689
1.50000 -0.00408
1.50200 0.02006
1.50400 0.02002
1.50600 -0.00392
1.50800 0.10542
1.51000 0.02693
1.51200 -0.02747
1.51400 -0.00154
1.51600 -0.05474
1.51800 -0.08299
1.52000 -0.04912
1.52200 -0.05486
1.52400 0.04236
1.52600 -0.01525
1.52800 -0.09946
1.53000 -0.07152
1.53200 0.04360
1.53400 -0.01189
1.53600 -0.01438
1.53800 -0.02319
1.54000 0.00155
1.54200 -0.03142
1.54400 -0.10650
1.54600 0.00744
1.54800 0.08167
1.55000 -0.03383
1.55200 0.04059
1.55400 -0.02831
1.55600 0.03964
1.55800 -0.03537
1.56000 -0.12067
1.56200 0.04072
1.56400 -0.09441
1.56600 -0.07435
1.56800 0.05779
1.57000 0.01949
1.57200 0.04806
1.57400 0.07822
1.57600 0.06741
1.57800 0.00192
1.58000 -0.05244
1.58200 0.08006
1.58400 -0.00299
1.58600 0.03968
1.58800 0.08668
1.59000 -0.01498
1.59200 -0.08209
1.59400 0.06696
1.59600 -0.00506
1.59800 0.08327
1.60000 -0.05034
1.60200 0.06271
1.60400 0.07115
1.60600 -0.01825
1.60800 -0.07797
1.61000 -0.08264
1.61200 0.10172
1.61400 0.00885
1.61600 0.06524
1.61800 -0.01184
1.62000 0.05176
1.62200 0.00405
1.62400 -0.04563
1.62600 0.02830
1.62800 0.01165
1.63000 -0.00511
1.63200 0.00760
1.63400 -0.03135
1.63600 -0.05326
1.63800 -0.02095
1.64000 -0.01024
1.64200 -0.00218
1.64400 0.04257
1.64600 0.01285
1.64800 -0.05293
1.65000 0.02038
1.65200 0.06511
1.65400 0.06520
1.65600 0.02898
1.65800 0.06359
1.66000 -0.02104
1.66200 -0.00670
1.66400 0.07173
1.66600 0.08374
1.66800 0.00293
1.67000 0.10550
1.67200 -0.02855
1.67400 0.03131
1.67600 0.01223
1.67800 -0.11708
1.68000 0.01152
1.68200 -0.05572
1.68400 0.08032
1.68600 0.10199
1.68800 0.13380
1.69000 0.00763
1.69200 -0.02791
1.69400 0.10263
1.69600 0.00204
1.69800 -0.04046
1.70000 -0.04485
1.70200 0.00588
1.70400 -0.03448
1.70600 0.02948
1.70800 -0.10589
1.71000 -0.09020
1.71200 0.06636
1.71400 0.05128
1.71600 0.01249
1.71800 -0.09382
1.72000 -0.02313
1.72200 -0.07724
1.72400 -0.03703
1.72600 0.04247
1.72800 0.03793
1.73000 0.00316
1.73200 0.10816
1.73400 -0.00397
1.73600 -0.06873
1.73800 -0.05835
1.74000 0.11982
1.74200 0.01105
1.74400 0.00930
1.74600 0.04108
1.74800 0.03488
1.75000 0.07500
1.75200 -0.00539
1.75400 0.02616
1.75600 0.02902
1.75800 0.01749
1.76000 0.19932
1.76200 0.04985
1.76400 -0.05033
1.76600 0.09301
1.76800 -0.03277
1.77000 -0.08832
1.77200 -0.04448
1.77400 -0.03693
1.77600 0.12279
1.77800 0.08020
1.78000 0.02110
1.78200 -0.06466
1.78400 -0.10900
1.78600 -0.01318
1.78800 -0.04089
1.79000 0.00215
1.79200 -0.07718
1.79400 0.03669
1.79600 -0.12738
1.79800 -0.14803
1.80000 -0.10927
1.80200 0.08167
1.80400 -0.05495
1.80600 -0.01922
1.80800 0.04741
1.81000 0.07598
1.81200 -0.00736
1.81400 0.09566
1.81600 -0.01881
1.81800 -0.01326
1.82000 -0.01948
1.82200 0.02113
1.82400 0.03884
1.82600 0.09033
1.82800 -0.00293
1.83000 0.00141
1.83200 -0.12099
1.83400 0.07919
1.83600 0.10609
1.83800 -0.06281
1.84000 -0.00335
1.84200 -0.00429
1.84400 -0.15539
1.84600 -0.10036
1.84800 -0.05464
1.85000 0.01723
1.85200 0.09064
1.85400 0.06811
1.85600 -0.04888
1.85800 -0.00623
1.86000 -0.00888
1.86200 -0.06891
1.86400 -0.02032
1.86600 -0.05883
1.86800 -0.01674
1.87000 0.00527
1.87200 -0.07812
1.87400 -0.08637
1.87600 0.08897
1.87800 0.04903
1.88000 0.02168
1.88200 0.09400
1.88400 0.02230
1.88600 0.03431
1.88800 -0.01546
1.89000 0.03867
1.89200 -0.00823
1.89400 -0.14667
1.89600 0.03528
1.89800 -0.00351
1.90000 -0.06149
1.90200 -0.02200
1.90400 -0.07993
1.90600 0.04569
1.90800 0.02424
1.91000 0.00666
1.91200 0.01296
1.91400 0.06861
1.91600 0.03142
1.91800 -0.00375
1.92000 -0.01847
1.92200 -0.04447
1.92400 -0.05361
1.92600 -0.08843
1.92800 -0.02633
1.93000 0.02123
1.93200 -0.11908
1.93400 0.06462
1.93600 0.03481
1.93800 -0.07725
1.94000 -0.04526
1.94200 0.08078
1.94400 0.08456
1.94600 0.03720
1.94800 0.00094
1.95000 -0.04511
1.95200 -0.00197
1.95400 0.01954
1.95600 -0.02368
1.95800 -0.01198
1.96000 -0.14405
1.96200 -0.02106
1.96400 0.03627
1.96600 -0.04003
1.96800 0.00250
1.97000 -0.08616
1.97200 0.02907
1.97400 0.02451
1.97600 0.07003
1.97800 -0.11376
1.98000 -0.00268
1.98200 0.09004
1.98400 -0.01567
1.98600 -0.02146
1.98800 -0.02558
1.99000 0.08053
1.99200 -0.05341
1.99400 0.00262
1.99600 0.10838
1.99800 0.07595
2.00000 0.01620
2.00200 0.02612
2.00400 -0.02767
2.00600 0.13393
2.00800 -0.00424
2.01000 -0.01873
2.01200 0.08030
2.01400 0.00346
2.01600 -0.02690
2.01800 0.03708
2.02000 0.01563
2.02200 0.08152
2.02400 -0.04377
2.02600 0.03546
2.02800 0.01654
2.03000 0.01872
2.03200 -0.02694
2.03400 -0.01098
2.03600 0.00443
2.03800 -0.07227
2.04000 0.04355
2.04200 0.01908
2.04400 -0.05231
2.04600 -0.10245
2.04800 -0.04790
2.05000 -0.05902
2.05200 0.01256
2.05400 0.06306
2.05600 -0.05403
2.05800 -0.04172
2.06000 -0.05078
2.06200 -0.09071
2.06400 -0.02906
2.06600 0.05713
2.06800 -0.07337
2.07000 -0.05202
2.07200 0.00066
2.07400 0.05320
2.07600 -0.01591
2.07800 -0.01424
2.08000 -0.02992
2.08200 -0.07523
2.08400 -0.08304
2.08600 -0.01193
2.08800 -0.01411
2.09000 -0.06043
2.09200 0.02581
2.09400 -0.02888
2.09600 -0.01636
2.09800 0.01736
2.10000 0.03173
2.10200 0.00294
2.10400 -0.00871
2.10600 0.05083
2.10800 -0.00790
2.11000 -0.00092
2.11200 0.08752
2.11400 0.06294
2.11600 0.06429
2.11800 0.10236
2.12000 -0.04369
2.12200 0.01361
2.12400 0.06793
2.12600 -0.11215
2.12800 0.01498
2.13000 0.03027
2.13200 -0.04744
2.13400 -0.04209
2.13600 -0.04622
2.13800 -0.06827
2.14000 0.00170
2.14200 0.06860
2.14400 -0.01928
2.14600 0.01108
2.14800 0.01918
2.15000 0.08717
2.15200 0.00947
2.15400 -0.04847
2.15600 0.09333
2.15800 0.08972
2.16000 0.03619
2.16200 0.02997
2.16400 0.05201
2.16600 0.00454
2.16800 -0.07724
2.17000 0.02367
2.17200 -0.04691
2.17400 -0.01615
2.17600 -0.08592
2.17800 0.13942
2.18000 -0.03817
2.18200 -0.02032
2.18400 0.05496
2.18600 0.01756
2.18800 0.09656
2.19000 -0.01664
2.19200 -0.07852
2.19400 -0.02777
2.19600 0.10221
2.19800 0.02100
2.20000 -0.03863
2.20200 0.06287
2.20400 0.04752
2.20600 0.03702
2.20800 0.00762
2.21000 0.01232
2.21200 0.04723
2.21400 0.11647
2.21600 -0.07703
2.21800 -0.04915
2.22000 0.11741
2.22200 -0.05536
2.22400 -0.00983
2.22600 0.01047
2.22800 0.03748
2.23000 0.01323
2.23200 0.17279
2.23400 0.39846
2.23600 1.08674
2.23800 1.47523
2.24000 1.41918
2.24200 0.86103
2.24400 0.31340
2.24600 0.12200
2.24800 -0.04139
2.25000 -0.00284
2.25200 -0.04308
2.25400 -0.05616
2.25600 -0.00830
2.25800 -0.04424
2.26000 0.00483
2.26200 -0.02278
2.26400 -0.04618
2.26600 0.00467
2.26800 0.00193
2.27000 0.13880
2.27200 0.10752
2.27400 -0.01676
2.27600 0.04408
2.27800 -0.03571
2.28000 -0.07790
2.28200 0.04962
2.28400 0.12458
2.28600 -0.07716
2.28800 -0.02563
2.29000 0.02788
2.29200 -0.07132
2.29400 -0.01684
2.29600 -0.10212
2.29800 -0.03939
2.30000 0.08487
2.30200 0.03505
2.30400 -0.05541
2.30600 -0.00728
2.30800 0.05725
2.31000 0.03035
2.31200 -0.03873
2.31400 -0.01241
2.31600 -0.09783
2.31800 0.03020
2.32000 -0.12455
2.32200 0.01889
2.32400 -0.04255
2.32600 -0.09045
2.32800 0.05915
2.33000 0.08098
2.33200 -0.05279
2.33400 -0.04616
2.33600 -0.02825
2.33800 -0.12898
2.34000 0.00052
2.34200 0.04988
2.34400 0.00759
2.34600 0.10405
2.34800 -0.01342
2.35000 0.08069
2.35200 -0.02255
2.35400 -0.03843
2.35600 -0.05543
2.35800 0.00200
2.36000 0.08884
2.36200 -0.04573
2.36400 0.03077
2.36600 0.02281
2.36800 -0.05630
2.37000 -0.04377
2.37200 0.01179
2.37400 -0.09773
2.37600 0.01181
2.37800 -0.12199
2.38000 -0.03769
2.38200 -0.05772
2.38400 0.12468
2.38600 0.06200
2.38800 -0.00938
2.39000 -0.01285
2.39200 -0.04053
2.39400 0.17445
2.39600 -0.01491
2.39800 -0.03764
2.40000 -0.01083
2.40200 0.03409
2.40400 0.07068
2.40600 0.07635
2.40800 0.07444
2.41000 0.10314
2.41200 0.03177
2.41400 0.04470
2.41600 -0.02753
2.41800 -0.09415
2.42000 0.06617
2.42200 0.02537
2.42400 0.00661
2.42600 0.01017
2.42800 0.07504
2.43000 0.02641
2.43200 0.05826
2.43400 0.05243
2.43600 0.08220
2.43800 0.06520
2.44000 0.10068
2.44200 -0.02952
2.44400 -0.03153
2.44600 -0.07628
2.44800 -0.03038
2.45000 -0.11130
2.45200 0.01517
2.45400 -0.05760
2.45600 -0.11807
2.45800 -0.00733
2.46000 -0.09933
2.46200 -0.03584
2.46400 0.00141
2.46600 0.03476
2.46800 -0.02823
2.47000 0.04978
2.47200 -0.00635
2.47400 -0.06215
2.47600 0.06168
2.47800 0.02873
2.48000 0.00413
2.48200 0.06948
2.48400 0.13926
2.48600 0.06463
2.48800 -0.06626
2.49000 0.07156
2.49200 0.15719
2.49400 -0.03811
2.49600 -0.04189
2.49800 -0.03986
2.50000 0.00796
2.50200 0.00031
2.50400 -0.06780
2.50600 0.04671
2.50800 -0.00609
2.51000 0.08564
2.51200 0.07142
2.51400 0.01541
2.51600 -0.04693
2.51800 -0.04945
2.52000 -0.07052
2.52200 0.09864
2.52400 -0.11550
2.52600 0.03481
2.52800 -0.05472
2.53000 -0.09997
2.53200 0.03341
2.53400 -0.11377
2.53600 -0.13790
2.53800 0.04042
2.54000 -0.08076
2.54200 -0.02005
2.54400 -0.03050
2.54600 0.06645
2.54800 0.00258
2.55000 0.04076
2.55200 0.08681
2.55400 -0.06326
2.55600 -0.02614
2.55800 -0.02957
2.56000 0.05978
2.56200 0.06498
2.56400 -0.02181
2.56600 0.02689
2.56800 0.12345
2.57000 0.00247
2.57200 0.01835
2.57400 -0.03845
2.57600 -0.03913
2.57800 -0.03477
2.58000 -0.00780
2.58200 0.03052
2.58400 -0.08976
2.58600 -0.05159
2.58800 -0.05551
2.59000 0.00990
2.59200 -0.04864
2.59400 -0.02951
2.59600 0.01372
2.59800 -0.08348
2.60000 0.04367
2.60200 0.07431
2.60400 0.02166
2.60600 0.04254
2.60800 -0.03067
2.61000 0.02737
2.61200 -0.07032
2.61400 -0.00318
2.61600 0.00521
2.61800 -0.10839
2.62000 0.04289
2.62200 -0.03778
2.62400 -0.12603
2.62600 0.05891
2.62800 0.02018
2.63000 0.00633
2.63200 0.05129
2.63400 0.03764
2.63600 0.01417
2.63800 0.02206
2.64000 0.16386
2.64200 0.02399
2.64400 -0.07937
2.64600 -0.00282
2.64800 0.08364
2.65000 -0.03663
2.65200 -0.03626
2.65400 0.07848
2.65600 -0.02671
2.65800 -0.03754
2.66000 -0.04703
2.66200 0.02778
2.66400 -0.15551
2.66600 0.07951
2.66800 -0.03767
2.67000 0.06126
2.67200 -0.06655
2.67400 -0.07208
2.67600 -0.03080
2.67800 0.01821
2.68000 0.08219
2.68200 -0.05649
2.68400 -0.00280
2.68600 -0.04315
2.68800 -0.04882
2.69000 -0.00222
2.69200 0.01020
2.69400 0.02424
2.69600 -0.00934
2.69800 0.02528
2.70000 -0.09851
2.70200 0.02536
2.70400 -0.15726
2.70600 -0.04687
2.70800 -0.05269
2.71000 0.10300
2.71200 -0.07730
2.71400 -0.01453
2.71600 0.13340
2.71800 0.09918
2.72000 -0.01430
2.72200 -0.00152
2.72400 -0.02448
2.72600 0.04807
2.72800 0.01179
2.73000 0.00096
2.73200 -0.09868
2.73400 -0.01266
2.73600 -0.00385
2.73800 0.07808
2.74000 0.06251
2.74200 -0.05780
2.74400 -0.00664
2.74600 -0.04218
2.74800 -0.17312
2.75000 0.07119
2.75200 0.00916
2.75400 -0.02420
2.75600 -0.02075
2.75800 0.04940
2.76000 -0.00357
2.76200 -0.01236
2.76400 -0.04044
2.76600 -0.00549
2.76800 -0.05171
2.77000 0.06369
2.77200 0.03673
2.77400 -0.05367
2.77600 -0.00292
2.77800 0.02611
2.78000 -0.00327
2.78200 -0.11421
2.78400 -0.01520
2.78600 0.02131
2.78800 0.03880
2.79000 -0.06449
2.79200 -0.02771
2.79400 0.00257
2.79600 -0.04441
2.79800 0.08364
2.80000 -0.04805
2.80200 -0.06492
2.80400 0.17412
2.80600 0.01164
2.80800 0.01616
2.81000 -0.03488
2.81200 0.06197
2.81400 -0.00061
2.81600 -0.00609
2.81800 0.01670
2.82000 -0.06416
2.82200 -0.05194
2.82400 0.05131
2.82600 0.00335
2.82800 0.03198
2.83000 0.05669
2.83200 0.04538
2.83400 0.05629
2.83600 0.00511
2.83800 -0.14040
2.84000 -0.00577
2.84200 0.00121
2.84400 -0.08531
2.84600 0.02645
2.84800 0.05178
2.85000 0.02636
2.85200 -0.02841
2.85400 -0.07516
2.85600 0.03539
2.85800 -0.00388
2.86000 0.05281
2.86200 -0.00786
2.86400 -0.05301
2.86600 -0.09635
2.86800 0.14964
2.87000 0.01734
2.87200 0.02144
2.87400 0.00313
2.87600 -0.03740
2.87800 -0.00037
2.88000 -0.00370
2.88200 -0.01766
2.88400 0.01089
2.88600 -0.02701
2.88800 -0.05603
2.89000 0.00101
2.89200 -0.01883
2.89400 0.07370
2.89600 -0.00222
2.89800 0.02156
2.90000 0.04659
2.90200 0.06155
2.90400 -0.02072
2.90600 0.00237
2.90800 0.03436
2.91000 0.06938
2.91200 0.07118
2.91400 0.03032
2.91600 -0.03820
2.91800 0.00237
2.92000 -0.04057
2.92200 0.08227
2.92400 -0.02228
2.92600 -0.05215
2.92800 -0.02462
2.93000 -0.05498
2.93200 0.05839
2.93400 0.03956
2.93600 0.03821
2.93800 -0.04732
2.94000 0.01373
2.94200 0.14083
2.94400 -0.03123
2.94600 -0.00642
2.94800 -0.01727
2.95000 0.05870
2.95200 -0.03964
2.95400 -0.01626
2.95600 -0.08044
2.95800 -0.04949
2.96000 0.04117
2.96200 -0.08593
2.96400 0.03479
2.96600 -0.04046
2.96800 -0.10746
2.97000 -0.08728
2.97200 0.05997
2.97400 -0.08776
2.97600 -0.05701
2.97800 -0.01090
2.98000 0.02008
2.98200 -0.01092
2.98400 0.03614
2.98600 -0.02088
2.98800 0.06124
2.99000 0.06701
2.99200 0.09755
2.99400 0.05560
2.99600 0.06460
2.99800 0.07052
3.00000 0.05386
3.00200 -0.05417
3.00400 0.10094
3.00600 0.00615
3.00800 0.02101
3.01000 -0.07010
3.01200 0.01620
3.01400 0.09191
3.01600 -0.01569
3.01800 0.02728
3.02000 0.11089
3.02200 0.02485
3.02400 -0.00034
3.02600 0.02589
3.02800 0.00924
3.03000 -0.04620
3.03200 -0.05871
3.03400 0.10333
3.03600 0.08451
3.03800 0.06148
3.04000 -0.11354
3.04200 0.04203
3.04400 -0.01623
3.04600 0.04840
3.04800 -0.06679
3.05000 0.03035
3.05200 0.05676
3.05400 -0.04714
3.05600 0.12479
3.05800 -0.01872
3.06000 0.16932
3.06200 0.00779
3.06400 0.02142
3.06600 0.00998
3.06800 -0.05340
3.07000 -0.03746
3.07200 0.06469
3.07400 -0.05237
3.07600 0.03059
3.07800 0.03297
3.08000 0.00315
3.08200 -0.08161
3.08400 -0.09360
3.08600 -0.00982
3.08800 0.03823
3.09000 -0.07909
3.09200 -0.04254
3.09400 0.00089
3.09600 -0.15774
3.09800 0.08529
3.10000 -0.09965
3.10200 -0.09309
3.10400 0.12169
3.10600 0.03784
3.10800 0.00808
3.11000 0.06386
3.11200 -0.07923
3.11400 0.00825
3.11600 -0.10003
3.11800 -0.08456
3.12000 -0.13199
3.12200 -0.03564
3.12400 -0.06733
3.12600 0.12643
3.12800 0.21374
3.13000 0.56957
3.13200 1.22385
3.13400 1.55002
3.13600 1.19908
3.13800 0.66241
3.14000 0.26176
3.14200 0.07009
3.14400 0.03294
3.14600 -0.01431
3.14800 -0.05678
3.15000 -0.06798
3.15200 0.02024
3.15400 -0.01504
3.15600 0.07674
3.15800 -0.01474
3.16000 -0.02902
3.16200 -0.01121
3.16400 0.09148
3.16600 -0.06809
3.16800 0.00723
3.17000 -0.07203
3.17200 -0.09916
3.17400 -0.02608
3.17600 0.10929
3.17800 0.03533
3.18000 0.06436
3.18200 0.07097
3.18400 -0.14327
3.18600 0.01017
3.18800 0.03717
3.19000 -0.04696
3.19200 -0.01628
3.19400 0.00551
3.19600 -0.01030
3.19800 0.06555
3.20000 -0.01664
3.20200 0.06554
3.20400 0.03949
3.20600 0.04852
3.20800 -0.04945
3.21000 -0.02340
3.21200 -0.01469
3.21400 -0.00248
3.21600 -0.05689
3.21800 0.02724
3.22000 -0.05855
3.22200 -0.08128
3.22400 -0.02459
3.22600 -0.00778
3.22800 -0.12169
3.23000 0.08712
3.23200 -0.06862
3.23400 -0.02439
3.23600 -0.05777
3.23800 -0.11426
3.24000 0.02921
3.24200 0.04585
3.24400 -0.00137
3.24600 -0.03169
3.24800 -0.08978
3.25000 0.01355
3.25200 -0.06866
3.25400 0.01418
3.25600 -0.01312
3.25800 0.03736
3.26000 0.05275
3.26200 0.05653
3.26400 0.01690
3.26600 0.03463
3.26800 0.07422
3.27000 -0.06960
3.27200 0.13323
3.27400 0.02426
3.27600 -0.05701
3.27800 0.04882
3.28000 -0.03631
3.28200 0.01668
3.28400 0.00853
3.28600 0.01068
3.28800 -0.01478
3.29000 0.07841
3.29200 0.06969
3.29400 0.01341
3.29600 0.01869
3.29800 -0.05110
3.30000 0.03241
3.30200 0.01511
3.30400 -0.12666
3.30600 -0.07967
3.30800 -0.00192
3.31000 0.07654
3.31200 -0.06456
3.31400 -0.07801
3.31600 -0.08722
3.31800 0.04287
3.32000 0.01345
3.32200 0.10432
3.32400 -0.06409
3.32600 0.08300
3.32800 -0.10930
3.33000 -0.08618
3.33200 0.02785
3.33400 -0.01948
3.33600 0.05894
3.33800 -0.05369
3.34000 -0.03228
3.34200 -0.03667
3.34400 0.00271
3.34600 0.01440
3.34800 0.12114
3.35000 -0.02113
3.35200 -0.02480
3.35400 -0.05762
3.35600 -0.00016
3.35800 -0.01014
3.36000 0.01900
3.36200 -0.14850
3.36400 0.04251
3.36600 -0.04543
3.36800 0.01720
3.37000 -0.08353
3.37200 -0.01770
3.37400 -0.02891
3.37600 0.05279
3.37800 -0.10227
3.38000 0.01862
3.38200 0.02961
3.38400 0.07926
3.38600 0.05812
3.38800 -0.06027
3.39000 -0.00124
3.39200 -0.03570
3.39400 -0.06876
3.39600 -0.01689
3.39800 -0.00234
3.40000 -0.00025
3.40200 -0.00412
3.40400 -0.02938
3.40600 0.10020
3.40800 0.01070
3.41000 0.01441
3.41200 -0.05128
3.41400 -0.05800
3.41600 -0.08174
3.41800 0.04913
3.42000 0.04940
3.42200 0.06193
3.42400 0.00060
3.42600 0.06775
3.42800 -0.05657
3.43000 0.03252
3.43200 0.02263
3.43400 -0.04391
3.43600 -0.03583
3.43800 0.04928
3.44000 0.04872
3.44200 0.08933
3.44400 0.03689
3.44600 -0.05066
3.44800 0.08045
3.45000 -0.00985
3.45200 -0.04116
3.45400 0.05331
3.45600 0.01964
3.45800 -0.09996
3.46000 0.07539
3.46200 -0.02555
3.46400 0.12204
3.46600 0.06664
3.46800 0.09105
3.47000 0.02373
3.47200 -0.00134
3.47400 -0.07321
3.47600 -0.08058
3.47800 -0.14007
3.48000 0.03398
3.48200 -0.06511
3.48400 -0.05192
3.48600 -0.01198
3.48800 0.00155
3.49000 -0.05070
3.49200 -0.03115
3.49400 0.04289
3.49600 0.05565
3.49800 0.00846
3.50000 0.01977
3.50200 -0.03334
3.50400 0.04138
3.50600 0.06911
3.50800 0.10940
3.51000 -0.08652
3.51200 0.06963
3.51400 0.06853
3.51600 -0.02206
3.51800 0.03888
3.52000 0.03470
3.52200 0.01525
3.52400 0.03745
3.52600 0.01306
3.52800 -0.08155
3.53000 0.04485
3.53200 -0.03594
3.53400 0.10486
3.53600 0.02065
3.53800 -0.03392
3.54000 -0.12283
3.54200 0.10086
3.54400 0.02459
3.54600 0.09277
3.54800 0.08845
3.55000 0.05995
3.55200 -0.03484
3.55400 0.06218
3.55600 -0.05515
3.55800 -0.00817
3.56000 0.03701
3.56200 0.03724
3.56400 0.10202
3.56600 0.07222
3.56800 0.00765
3.57000 -0.00669
3.57200 0.10024
3.57400 -0.09019
3.57600 -0.06888
3.57800 -0.00273
3.58000 0.01204
3.58200 0.01995
3.58400 -0.04506
3.58600 -0.03896
3.58800 -0.06646
3.59000 0.03756
3.59200 -0.10889
3.59400 -0.08929
3.59600 -0.02302
3.59800 -0.02496
3.60000 -0.04713
3.60200 0.05915
3.60400 -0.02424
3.60600 0.02503
3.60800 -0.04403
3.61000 0.00680
3.61200 -0.01113
3.61400 0.03912
3.61600 0.06569
3.61800 0.04829
3.62000 -0.03174
3.62200 -0.01181
3.62400 0.05040
3.62600 -0.04630
3.62800 -0.09174
3.63000 0.06457
3.63200 -0.00164
3.63400 -0.03889
3.63600 0.04571
3.63800 0.03222
3.64000 -0.03657
3.64200 -0.10698
3.64400 0.11077
3.64600 0.05352
3.64800 0.03563
3.65000 -0.01171
3.65200 -0.11310
3.65400 0.10683
3.65600 0.04502
3.65800 -0.01220
3.66000 0.03170
3.66200 -0.07266
3.66400 -0.00151
3.66600 -0.05235
3.66800 0.01964
3.67000 -0.07230
3.67200 -0.06180
3.67400 -0.06149
3.67600 -0.07857
3.67800 0.00497
3.68000 -0.06076
3.68200 0.05292
3.68400 0.02748
3.68600 -0.02793
3.68800 -0.00384
3.69000 -0.01527
3.69200 0.04488
3.69400 -0.03184
3.69600 -0.06324
3.69800 0.01195
3.70000 0.00364
3.70200 -0.08517
3.70400 0.00995
3.70600 -0.02767
3.70800 -0.02453
3.71000 -0.00124
3.71200 -0.05970
3.71400 0.05030
3.71600 -0.01112
3.71800 -0.06050
3.72000 0.04151
3.72200 0.08500
3.72400 0.04585
3.72600 -0.03779
3.72800 -0.04838
3.73000 0.04828
3.73200 -0.03463
3.73400 0.00851
3.73600 0.00392
3.73800 -0.08744
3.74000 -0.06105
3.74200 -0.00339
3.74400 0.06052
3.74600 0.00047
3.74800 -0.03759
3.75000 -0.05409
3.75200 -0.04464
3.75400 0.02249
3.75600 0.06606
3.75800 -0.05633
3.76000 0.00485
3.76200 -0.03994
3.76400 -0.00837
3.76600 -0.01706
3.76800 -0.06029
3.77000 -0.02477
3.77200 -0.04335
3.77400 -0.06059
3.77600 -0.03511
3.77800 0.00600
3.78000 0.07596
3.78200 -0.02997
3.78400 -0.02561
3.78600 0.04947
3.78800 0.07432
3.79000 -0.04196
3.79200 -0.09170
3.79400 0.06828
3.79600 0.04271
3.79800 -0.02898
3.80000 -0.02631
3.80200 0.02168
3.80400 -0.08579
3.80600 -0.05723
3.80800 -0.07205
3.81000 -0.07635
3.81200 0.05151
3.81400 0.03098
3.81600 0.06418
3.81800 0.06168
3.82000 -0.10458
3.82200 0.07225
3.82400 0.01852
3.82600 -0.03049
3.82800 0.03751
3.83000 0.08759
3.83200 0.00941
3.83400 -0.05989
3.83600 0.03573
3.83800 -0.06272
3.84000 0.02491
3.84200 -0.07499
3.84400 -0.00627
3.84600 -0.04443
3.84800 -0.05702
3.85000 -0.04172
3.85200 -0.01380
3.85400 0.10925
3.85600 -0.02913
3.85800 -0.05606
3.86000 0.12276
3.86200 -0.04775
3.86400 -0.08259
3.86600 -0.02545
3.86800 0.05790
3.87000 -0.00982
3.87200 0.05313
3.87400 -0.03767
3.87600 -0.03119
3.87800 -0.02754
3.88000 -0.03925
3.88200 -0.04345
3.88400 0.04073
3.88600 0.05226
3.88800 -0.10869
3.89000 0.01764
3.89200 0.01499
3.89400 0.10761
3.89600 -0.07537
3.89800 0.00370
3.90000 -0.02189
3.90200 0.09447
3.90400 0.01060
3.90600 0.04560
3.90800 0.05287
3.91000 0.03542
3.91200 0.01070
3.91400 -0.05363
3.91600 -0.03770
3.91800 0.05605
3.92000 -0.01771
3.92200 -0.01320
3.92400 0.01128
3.92600 -0.10456
3.92800 0.08110
3.93000 -0.01460
3.93200 0.00058
3.93400 0.05134
3.93600 -0.03502
3.93800 -0.00072
3.94000 -0.06814
3.94200 -0.00316
3.94400 0.02173
3.94600 0.00545
3.94800 -0.00884
3.95000 -0.08912
3.95200 0.08094
3.95400 0.02340
3.95600 -0.06109
3.95800 -0.07780
3.96000 0.07230
3.96200 0.06461
3.96400 0.05245
3.96600 0.05605
3.96800 0.00512
3.97000 0.05088
3.97200 -0.01707
3.97400 0.08374
3.97600 0.09818
3.97800 -0.00193
3.98000 -0.06967
3.98200 -0.05469
3.98400 0.01782
3.98600 0.03020
3.98800 -0.02956
3.99000 -0.03321
3.99200 0.01286
3.99400 0.01014
3.99600 -0.08795
3.99800 -0.05511
4.00000 -0.05530
4.00200 -0.06461
4.00400 -0.02652
4.00600 -0.05545
4.00800 0.10563
4.01000 -0.05185
4.01200 -0.19330
4.01400 -0.00592
4.01600 -0.00274
4.01800 -0.05624
4.02000 0.07378
4.02200 -0.00744
4.02400 0.18034
4.02600 0.53604
4.02800 1.23396
4.03000 1.48006
4.03200 1.12169
4.03400 0.58529
4.03600 0.25363
4.03800 -0.00651
4.04000 -0.07539
4.04200 0.07439
4.04400 0.00554
4.04600 -0.04021
4.04800 -0.01241
4.05000 0.09749
4.05200 0.04266
4.05400 -0.00552
4.05600 -0.02396
4.05800 0.01632
4.06000 -0.04229
4.06200 -0.08038
4.06400 0.10403
4.06600 -0.08545
4.06800 -0.06405
4.07000 0.03806
4.07200 -0.06588
4.07400 -0.03643
4.07600 -0.02770
4.07800 -0.00357
4.08000 0.06900
4.08200 0.06639
4.08400 -0.07808
4.08600 0.00949
4.08800 0.05768
4.09000 0.01874
4.09200 -0.03150
4.09400 0.02738
4.09600 0.10234
4.09800 -0.00229
4.10000 -0.09045
4.10200 0.01314
4.10400 0.00037
4.10600 0.13342
4.10800 -0.00595
4.11000 0.07428
4.11200 -0.00522
4.11400 0.03418
4.11600 -0.01309
4.11800 0.01611
4.12000 0.10375
4.12200 0.04543
4.12400 -0.02296
4.12600 -0.08746
4.12800 0.14586
4.13000 0.03498
4.13200 0.08927
4.13400 0.11267
4.13600 0.04644
4.13800 0.04719
4.14000 0.09090
4.14200 0.05099
4.14400 -0.04084
4.14600 -0.10101
4.14800 -0.00248
4.15000 -0.06486
4.15200 0.04863
4.15400 -0.01675
4.15600 -0.04561
4.15800 -0.18460
4.16000 0.04361
4.16200 0.02421
4.16400 0.00141
4.16600 -0.03687
4.16800 0.02036
4.17000 -0.04212
4.17200 -0.07942
4.17400 -0.16341
4.17600 -0.00034
4.17800 -0.15836
4.18000 -0.15773
4.18200 -0.03169
4.18400 0.00589
4.18600 0.02894
4.18800 -0.03259
4.19000 0.03831
4.19200 0.04368
4.19400 0.05807
4.19600 0.01099
4.19800 0.03199
4.20000 0.01334
4.20200 0.10003
4.20400 0.01108
4.20600 0.09315
4.20800 -0.06158
4.21000 -0.02604
4.21200 0.01283
4.21400 -0.01116
4.21600 -0.02008
4.21800 -0.01374
4.22000 -0.02514
4.22200 0.03846
4.22400 -0.11157
4.22600 0.01911
4.22800 0.03409
4.23000 -0.01724
4.23200 0.15755
4.23400 0.01995
4.23600 -0.01820
4.23800 -0.04350
4.24000 -0.05796
4.24200 0.00492
4.24400 -0.04516
4.24600 0.08141
4.24800 -0.06175
4.25000 -0.00131
4.25200 0.06429
4.25400 0.07199
4.25600 0.08963
4.25800 0.06899
4.26000 -0.12957
4.26200 0.04267
4.26400 -0.00942
4.26600 0.11318
4.26800 -0.09074
4.27000 0.03411
4.27200 0.08325
4.27400 0.10291
4.27600 -0.02957
4.27800 0.02782
4.28000 0.03564
4.28200 -0.04525
4.28400 -0.08448
4.28600 -0.04329
4.28800 -0.05000
4.29000 -0.05491
4.29200 0.01909
4.29400 -0.01128
4.29600 -0.02087
4.29800 -0.05592
4.30000 -0.07552
4.30200 0.01158
4.30400 -0.06157
4.30600 -0.01688
4.30800 0.14673
4.31000 -0.02000
4.31200 0.01998
4.31400 0.00627
4.31600 -0.07408
4.31800 0.03389
4.32000 0.03637
4.32200 0.00998
4.32400 -0.04178
4.32600 -0.04789
4.32800 -0.00918
4.33000 0.02302
4.33200 0.03841
4.33400 -0.00673
4.33600 0.11499
4.33800 0.02687
4.34000 -0.15704
4.34200 0.01264
4.34400 0.09789
4.34600 -0.02667
4.34800 0.04414
4.35000 -0.00754
4.35200 -0.02798
4.35400 -0.06371
4.35600 0.01557
4.35800 0.03478
4.36000 0.19175
4.36200 -0.03687
4.36400 -0.05728
4.36600 0.04788
4.36800 0.00571
4.37000 -0.07449
4.37200 0.00159
4.37400 -0.13928
4.37600 0.01304
4.37800 0.07175
4.38000 0.01920
4.38200 0.02524
4.38400 0.01788
4.38600 0.05890
4.38800 -0.15807
4.39000 0.06620
4.39200 -0.00670
4.39400 0.00910
4.39600 0.00588
4.39800 0.18676
4.40000 -0.03267
4.40200 -0.03463
4.40400 -0.06678
4.40600 -0.04454
4.40800 0.09751
4.41000 -0.00758
4.41200 0.05740
4.41400 0.01453
4.41600 -0.00250
4.41800 -0.01702
4.42000 0.02815
4.42200 0.06573
4.42400 -0.01445
4.42600 -0.06044
4.42800 0.02147
4.43000 -0.10053
4.43200 0.08843
4.43400 -0.02629
4.43600 -0.01427
4.43800 0.08796
4.44000 0.02507
4.44200 0.04674
4.44400 -0.03688
4.44600 0.02338
4.44800 0.03062
4.45000 -0.06513
4.45200 -0.11293
4.45400 -0.07731
4.45600 -0.03131
4.45800 -0.03365
4.46000 0.01381
4.46200 -0.06532
4.46400 -0.01107
4.46600 0.09809
4.46800 0.00756
4.47000 0.02153
4.47200 -0.00414
4.47400 -0.00712
4.47600 -0.05410
4.47800 -0.03560
4.48000 -0.08695
4.48200 0.01184
4.48400 -0.06309
4.48600 -0.02014
4.48800 -0.02295
4.49000 0.01464
4.49200 0.07986
4.49400 0.00943
4.49600 0.02482
4.49800 -0.03116
4.50000 -0.06671
4.50200 0.11826
4.50400 0.00754
4.50600 -0.00249
4.50800 -0.01821
4.51000 -0.11619
4.51200 -0.04723
4.51400 0.02853
4.51600 0.01257
4.51800 -0.06029
4.52000 -0.06561
4.52200 0.00166
4.52400 0.05255
4.52600 0.04481
4.52800 0.05255
4.53000 0.05262
4.53200 0.02688
4.53400 0.06365
4.53600 -0.03306
4.53800 -0.01657
4.54000 0.10267
4.54200 -0.06350
4.54400 -0.02581
4.54600 -0.06919
4.54800 -0.10806
4.55000 0.02781
4.55200 -0.02921
4.55400 0.00746
4.55600 0.02718
4.55800 0.03423
4.56000 0.08901
4.56200 -0.01032
4.56400 0.05673
4.56600 0.04705
4.56800 -0.10626
4.57000 -0.14268
4.57200 -0.02439
4.57400 0.01728
4.57600 -0.01514
4.57800 0.16177
4.58000 0.02428
4.58200 0.01148
4.58400 -0.07607
4.58600 0.00048
4.58800 -0.19945
4.59000 0.03978
4.59200 -0.02676
4.59400 0.06773
4.59600 0.04615
4.59800 -0.17302
4.60000 0.00496
4.60200 -0.03759
4.60400 0.03488
4.60600 -0.08786
4.60800 -0.08247
4.61000 -0.06204
4.61200 0.05975
4.61400 0.00854
4.61600 -0.02156
4.61800 0.02312
4.62000 0.07058
4.62200 -0.06325
4.62400 -0.01811
4.62600 0.03676
4.62800 -0.01100
4.63000 0.10363
4.63200 0.01179
4.63400 -0.04481
4.63600 0.04740
4.63800 -0.07765
4.64000 0.02262
4.64200 -0.10215
4.64400 -0.00132
4.64600 0.00004
4.64800 -0.03119
4.65000 0.01585
4.65200 0.04130
4.65400 0.02502
4.65600 -0.06594
4.65800 -0.11408
4.66000 -0.08272
4.66200 0.08216
4.66400 0.11368
4.66600 0.03203
4.66800 0.05073
4.67000 -0.07806
4.67200 0.02284
4.67400 -0.01096
4.67600 -0.08922
4.67800 -0.09834
4.68000 0.02915
4.68200 -0.05885
4.68400 -0.08718
4.68600 -0.00844
4.68800 0.00500
4.69000 -0.11808
4.69200 -0.07636
4.69400 0.09568
4.69600 -0.00782
4.69800 0.03473
4.70000 0.04786
4.70200 0.01630
4.70400 -0.00184
4.70600 0.01971
4.70800 0.00894
4.71000 0.07773
4.71200 -0.04260
4.71400 0.03508
4.71600 -0.01709
4.71800 0.00724
4.72000 0.00848
4.72200 -0.08413
4.72400 0.02364
4.72600 -0.04470
4.72800 -0.03876
4.73000 -0.08264
4.73200 -0.01258
4.73400 0.00121
4.73600 -0.00509
4.73800 -0.03295
4.74000 0.06557
4.74200 -0.06761
4.74400 -0.03490
4.74600 -0.02131
4.74800 -0.09812
4.75000 -0.01310
4.75200 0.05505
4.75400 0.01712
4.75600 0.01685
4.75800 -0.01610
4.76000 -0.10178
4.76200 -0.03509
4.76400 -0.06313
4.76600 -0.03072
4.76800 0.01263
4.77000 0.02518
4.77200 0.00119
4.77400 0.00689
4.77600 0.06414
4.77800 0.17167
4.78000 0.11896
4.78200 0.02155
4.78400 0.07752
4.78600 -0.10798
4.78800 0.01305
4.79000 0.00911
4.79200 -0.07552
4.79400 -0.04836
4.79600 0.01287
4.79800 -0.01484
4.80000 -0.05719
4.80200 -0.01784
4.80400 -0.07172
4.80600 -0.02100
4.80800 -0.04955
4.81000 -0.00609
4.81200 -0.08316
4.81400 0.06012
4.81600 -0.05513
4.81800 -0.03993
4.82000 0.06566
4.82200 0.06434
4.82400 0.04453
4.82600 -0.01987
4.82800 0.09915
4.83000 -0.04488
4.83200 0.02631
4.83400 0.05183
4.83600 -0.02385
4.83800 0.00064
4.84000 0.01008
4.84200 -0.00279
4.84400 0.04926
4.84600 0.00114
4.84800 -0.00053
4.85000 -0.01810
4.85200 0.00822
4.85400 -0.04074
4.85600 0.05503
4.85800 0.06742
4.86000 -0.02508
4.86200 0.05616
4.86400 0.07654
4.86600 -0.06329
4.86800 -0.17667
4.87000 -0.06754
4.87200 -0.00619
4.87400 -0.05829
4.87600 -0.07332
4.87800 -0.01554
4.88000 -0.03818
4.88200 -0.07875
4.88400 0.14512
4.88600 0.00375
4.88800 -0.03434
4.89000 0.06751
4.89200 0.07949
4.89400 -0.04000
4.89600 0.02871
4.89800 0.02556
4.90000 -0.06492
4.90200 0.01236
4.90400 0.03866
4.90600 0.01725
4.90800 0.03437
4.91000 -0.08029
4.91200 0.06716
4.91400 0.01722
4.91600 -0.01574
4.91800 0.05975
4.92000 0.27371
4.92200 0.92669
4.92400 1.37133
4.92600 1.47835
4.92800 1.03401
4.93000 0.44698
4.93200 0.18590
4.93400 -0.01499
4.93600 0.08788
4.93800 -0.06504
4.94000 -0.00889
4.94200 0.11054
4.94400 -0.08288
4.94600 -0.02923
4.94800 -0.02775
4.95000 0.03418
4.95200 0.00380
4.95400 -0.01736
4.95600 0.03903
4.95800 -0.01656
4.96000 0.00025
4.96200 -0.03286
4.96400 0.06447
4.96600 0.05314
4.96800 0.01290
4.97000 0.03630
4.97200 0.01817
4.97400 -0.02222
4.97600 0.03022
4.97800 0.11156
4.98000 0.06444
4.98200 -0.09712
4.98400 0.11639
4.98600 0.01306
4.98800 -0.06042
4.99000 0.09643
4.99200 0.05627
4.99400 0.11330
4.99600 0.02841
4.99800 -0.00440
5.00000 0.03657
5.00200 -0.05789
5.00400 -0.03430
5.00600 -0.02672
5.00800 -0.03983
5.01000 -0.02790
5.01200 0.03911
5.01400 -0.03621
5.01600 -0.02098
5.01800 -0.02754
5.02000 -0.05498
5.02200 -0.01374
5.02400 -0.00033
5.02600 0.00958
5.02800 -0.06035
5.03000 0.00328
5.03200 -0.02660
5.03400 -0.03216
5.03600 -0.01116
5.03800 -0.09459
5.04000 -0.06295
5.04200 0.07001
5.04400 0.04814
5.04600 0.01963
5.04800 0.09494
5.05000 0.01996
5.05200 -0.12396
5.05400 0.02777
5.05600 -0.05185
5.05800 0.03611
5.06000 0.03308
5.06200 -0.02198
5.06400 -0.08875
5.06600 0.03796
5.06800 0.02756
5.07000 -0.07002
5.07200 -0.03034
5.07400 -0.06605
5.07600 0.02326
5.07800 -0.01558
5.08000 -0.00295
5.08200 -0.02107
5.08400 -0.00600
5.08600 0.05061
5.08800 -0.00171
5.09000 -0.07023
5.09200 0.01472
5.09400 0.07729
5.09600 -0.02306
5.09800 -0.15846
5.10000 0.09951
5.10200 -0.05205
5.10400 -0.03449
5.10600 -0.01065
5.10800 0.00284
5.11000 -0.06961
5.11200 0.04157
5.11400 -0.07902
5.11600 -0.03604
5.11800 0.00022
5.12000 0.03347
5.12200 0.01931
5.12400 0.00831
5.12600 -0.07631
5.12800 -0.01671
5.13000 0.03881
5.13200 -0.05648
5.13400 -0.00921
5.13600 0.00670
5.13800 -0.00736
5.14000 -0.01419
5.14200 -0.01840
5.14400 0.03837
5.14600 -0.03053
5.14800 0.01181
5.15000 0.03349
5.15200 0.00248
5.15400 -0.02012
5.15600 0.06181
5.15800 0.02990
5.16000 0.13632
5.16200 -0.05109
5.16400 -0.02397
5.16600 -0.06875
5.16800 -0.03537
5.17000 -0.06057
5.17200 -0.03076
5.17400 0.02537
5.17600 0.00405
5.17800 -0.01820
5.18000 -0.02018
5.18200 0.01110
5.18400 -0.04325
5.18600 0.00857
5.18800 -0.02824
5.19000 0.05137
5.19200 0.03230
5.19400 0.11534
5.19600 -0.03644
5.19800 -0.06362
5.20000 -0.00098
5.20200 -0.01184
5.20400 0.04304
5.20600 -0.02818
5.20800 0.06817
5.21000 0.05495
5.21200 -0.10054
5.21400 0.06003
5.21600 -0.08443
5.21800 -0.00435
5.22000 0.02633
5.22200 0.02125
5.22400 -0.05907
5.22600 0.04028
5.22800 0.02356
5.23000 0.02852
5.23200 -0.01125
5.23400 0.04270
5.23600 -0.06639
5.23800 0.05320
5.24000 0.04655
5.24200 -0.07425
5.24400 -0.04092
5.24600 0.02337
5.24800 -0.02158
5.25000 0.05284
5.25200 0.04905
5.25400 0.01236
5.25600 -0.01018
5.25800 0.07066
5.26000 0.01463
5.26200 -0.01598
5.26400 0.03147
5.26600 -0.05760
5.26800 0.03930
5.27000 0.10410
5.27200 -0.00161
5.27400 -0.11023
5.27600 0.09471
5.27800 0.03730
5.28000 0.07051
5.28200 0.03871
5.28400 0.00072
5.28600 0.00633
5.28800 0.01684
5.29000 -0.06612
5.29200 -0.03762
5.29400 -0.03474
5.29600 0.02155
5.29800 -0.03313
5.30000 0.14822
5.30200 -0.01862
5.30400 -0.02531
5.30600 0.00407
5.30800 0.02169
5.31000 0.04511
5.31200 0.05740
5.31400 0.04645
5.31600 0.05187
5.31800 0.03263
5.32000 -0.06985
5.32200 -0.00968
5.32400 0.02389
5.32600 -0.09961
5.32800 -0.01251
5.33000 -0.01061
5.33200 0.14324
5.33400 -0.05915
5.33600 0.01652
5.33800 0.01801
5.34000 0.03659
5.34200 -0.09403
5.34400 -0.05438
5.34600 0.02185
5.34800 0.01404
5.35000 -0.09026
5.35200 0.03471
5.35400 -0.01011
5.35600 0.11502
5.35800 0.08765
5.36000 -0.02516
5.36200 0.03559
5.36400 -0.01046
5.36600 -0.02641
5.36800 0.05079
5.37000 -0.02440
5.37200 -0.06513
5.37400 -0.10612
5.37600 -0.03698
5.37800 0.06800
5.38000 -0.09520
5.38200 0.12179
5.38400 0.03162
5.38600 -0.05040
5.38800 0.01940
5.39000 0.03459
5.39200 0.14535
5.39400 0.00204
5.39600 0.05096
5.39800 -0.06123
5.40000 -0.07946
5.40200 -0.03196
5.40400 -0.03073
5.40600 -0.01481
5.40800 -0.02170
5.41000 -0.03231
5.41200 -0.00699
5.41400 -0.01040
5.41600 0.05832
5.41800 0.00800
5.42000 0.05806
5.42200 -0.07008
5.42400 0.05846
5.42600 -0.00643
5.42800 0.00266
5.43000 -0.08344
5.43200 -0.01822
5.43400 0.03867
5.43600 -0.05160
5.43800 -0.08664
5.44000 -0.04527
5.44200 0.04838
5.44400 0.03639
5.44600 0.07888
5.44800 -0.02452
5.45000 -0.03774
5.45200 0.11305
5.45400 -0.05118
5.45600 0.03347
5.45800 0.07651
5.46000 0.03685
5.46200 -0.04712
5.46400 -0.07489
5.46600 0.01621
5.46800 0.05083
5.47000 0.03525
5.47200 0.02587
5.47400 -0.06415
5.47600 -0.01134
5.47800 -0.07421
5.48000 0.03039
5.48200 0.03417
5.48400 -0.01640
5.48600 -0.02819
5.48800 -0.03919
5.49000 -0.00743
5.49200 0.01183
5.49400 0.02582
5.49600 0.02865
5.49800 0.03858
5.50000 0.09194
5.50200 0.00909
5.50400 0.04262
5.50600 0.13624
5.50800 0.03155
5.51000 -0.01576
5.51200 -0.01877
5.51400 -0.00045
5.51600 -0.05058
5.51800 -0.04880
5.52000 0.05293
5.52200 0.03484
5.52400 -0.07481
5.52600 -0.00389
5.52800 -0.02218
5.53000 0.07045
5.53200 0.05181
5.53400 -0.01759
5.53600 0.05491
5.53800 -0.01705
5.54000 -0.02998
5.54200 -0.04924
5.54400 -0.01792
5.54600 -0.03044
5.54800 -0.01432
5.55000 0.00451
5.55200 0.09808
5.55400 0.07072
5.55600 0.02438
5.55800 0.03185
5.56000 -0.03485
5.56200 -0.03713
5.56400 0.02754
5.56600 -0.09005
5.56800 0.04132
5.57000 0.03127
5.57200 -0.02020
5.57400 0.02712
5.57600 0.01391
5.57800 -0.00477
5.58000 -0.02168
5.58200 0.02358
5.58400 -0.01036
5.58600 -0.09707
5.58800 0.02759
5.59000 0.02339
5.59200 0.02028
5.59400 0.01708
5.59600 0.12396
5.59800 -0.12483
5.60000 -0.03269
5.60200 -0.08323
5.60400 -0.00077
5.60600 -0.01648
5.60800 0.08078
5.61000 -0.00662
5.61200 -0.01885
5.61400 -0.02131
5.61600 -0.02065
5.61800 0.04496
5.62000 -0.13803
5.62200 0.03773
5.62400 0.11867
5.62600 0.02728
5.62800 0.02436
5.63000 -0.00251
5.63200 -0.04156
5.63400 0.00627
5.63600 -0.02769
5.63800 0.03563
5.64000 0.16494
5.64200 0.02147
5.64400 -0.03880
5.64600 0.08035
5.64800 -0.16829
5.65000 -0.06477
5.65200 -0.06378
5.65400 0.03473
5.65600 0.01228
5.65800 -0.00838
5.66000 0.06488
5.66200 -0.03234
5.66400 0.00886
5.66600 -0.02438
5.66800 0.01298
5.67000 -0.08944
5.67200 0.01630
5.67400 -0.04168
5.67600 -0.03732
5.67800 -0.04324
5.68000 -0.04624
5.68200 0.00116
5.68400 0.04876
5.68600 0.02335
5.68800 0.00855
5.69000 -0.04668
5.69200 -0.01723
5.69400 -0.15064
5.69600 -0.09606
5.69800 -0.11639
5.70000 0.04415
5.70200 -0.06619
5.70400 -0.02991
5.70600 0.08180
5.70800 -0.09260
5.71000 -0.04216
5.71200 -0.04821
5.71400 0.07146
5.71600 -0.02107
5.71800 -0.04305
5.72000 0.06350
5.72200 -0.03265
5.72400 0.07172
5.72600 -0.02821
5.72800 0.02787
5.73000 -0.06208
5.73200 0.00449
5.73400 -0.00542
5.73600 -0.07897
5.73800 0.01172
5.74000 -0.02714
5.74200 0.02951
5.74400 0.15560
5.74600 -0.04733
5.74800 0.08967
5.75000 -0.09103
5.75200 -0.08718
5.75400 0.08059
5.75600 -0.11713
5.75800 0.01533
5.76000 0.03867
5.76200 0.03695
5.76400 0.05529
5.76600 0.01745
5.76800 -0.14885
5.77000 -0.04214
5.77200 0.08284
5.77400 0.06107
5.77600 -0.04031
5.77800 0.06797
5.78000 -0.08030
5.78200 0.07217
5.78400 -0.01044
5.78600 -0.02254
5.78800 0.06716
5.79000 -0.00113
5.79200 0.06695
5.79400 0.03369
5.79600 -0.02931
5.79800 -0.01787
5.80000 0.00961
5.80200 0.10719
5.80400 0.00372
5.80600 -0.02644
5.80800 0.00396
5.81000 -0.07806
5.81200 0.03176
5.81400 0.07055
5.81600 0.36678
5.81800 0.98581
5.82000 1.43783
5.82200 1.44321
5.82400 0.85105
5.82600 0.13749
5.82800 0.05838
5.83000 -0.05238
5.83200 -0.06757
5.83400 0.00318
5.83600 0.05578
5.83800 0.07266
5.84000 -0.09432
5.84200 0.09216
5.84400 0.04923
5.84600 0.02440
5.84800 0.00763
5.85000 0.07552
5.85200 0.01759
5.85400 0.03650
5.85600 -0.01004
5.85800 0.09172
5.86000 0.01257
5.86200 0.05722
5.86400 -0.01385
5.86600 -0.11818
5.86800 -0.02926
5.87000 -0.01997
5.87200 0.04609
5.87400 -0.03123
5.87600 0.00117
5.87800 0.03390
5.88000 -0.07778
5.88200 -0.02113
5.88400 0.06128
5.88600 -0.02461
5.88800 -0.02811
5.89000 -0.04447
5.89200 0.08588
5.89400 0.06582
5.89600 -0.01226
5.89800 -0.03219
5.90000 0.01766
5.90200 -0.07531
5.90400 0.02261
5.90600 -0.01919
5.90800 -0.01737
5.91000 0.02367
5.91200 0.00222
5.91400 -0.02523
5.91600 0.02101
5.91800 0.15976
5.92000 0.03562
5.92200 0.07564
5.92400 0.06278
5.92600 0.05032
5.92800 0.02424
5.93000 -0.09080
5.93200 -0.00684
5.93400 0.00066
5.93600 0.00901
5.93800 0.05848
5.94000 -0.08402
5.94200 -0.02188
5.94400 0.04969
5.94600 0.02821
5.94800 -0.04827
5.95000 -0.06204
5.95200 -0.01377
5.95400 0.01253
5.95600 -0.00029
5.95800 -0.00298
5.96000 0.00756
5.96200 0.02598
5.96400 0.11615
5.96600 0.04211
5.96800 0.03186
5.97000 0.03715
5.97200 0.01895
5.97400 -0.03079
5.97600 -0.01441
5.97800 0.02712
5.98000 0.05564
5.98200 -0.01614
5.98400 0.01086
5.98600 -0.00639
5.98800 -0.02676
5.99000 -0.01882
5.99200 -0.01990
5.99400 0.05018
5.99600 -0.03663
5.99800 -0.02356
6.00000 0.03601
6.00200 0.05810
6.00400 -0.00084
6.00600 0.06884
6.00800 0.02854
6.01000 -0.00486
6.01200 0.01388
6.01400 0.10946
6.01600 -0.08180
6.01800 -0.07605
6.02000 0.01006
6.02200 -0.03065
6.02400 -0.07597
6.02600 -0.00527
6.02800 0.02156
6.03000 -0.02051
6.03200 -0.07957
6.03400 -0.06220
6.03600 0.01267
6.03800 0.10422
6.04000 0.01293
6.04200 0.01984
6.04400 0.02608
6.04600 -0.10097
6.04800 -0.02438
6.05000 -0.13087
6.05200 0.01668
6.05400 -0.09540
6.05600 0.03927
6.05800 -0.04945
6.06000 0.11304
6.06200 0.03866
6.06400 0.03875
6.06600 0.03536
6.06800 -0.03373
6.07000 0.06928
6.07200 -0.08438
6.07400 0.04661
6.07600 -0.04783
6.07800 -0.05926
6.08000 -0.00361
6.08200 -0.04998
6.08400 0.03208
6.08600 0.08024
6.08800 0.02268
6.09000 -0.06946
6.09200 0.08309
6.09400 0.03093
6.09600 -0.02591
6.09800 -0.01905
6.10000 -0.09284
6.10200 0.01581
6.10400 0.14967
6.10600 -0.10433
6.10800 0.08056
6.11000 -0.19010
6.11200 -0.01710
6.11400 0.14302
6.11600 -0.08642
6.11800 -0.07087
6.12000 0.02276
6.12200 0.04789
6.12400 0.02371
6.12600 -0.07600
6.12800 -0.02894
6.13000 0.02546
6.13200 -0.03668
6.13400 -0.02269
6.13600 -0.02557
6.13800 -0.01196
6.14000 -0.08766
6.14200 -0.04376
6.14400 -0.07226
6.14600 0.00977
6.14800 0.00709
6.15000 0.03165
6.15200 0.01963
6.15400 -0.10953
6.15600 -0.06440
6.15800 0.04373
6.16000 -0.04015
6.16200 0.04687
6.16400 -0.05095
6.16600 -0.06101
6.16800 0.03191
6.17000 0.07025
6.17200 0.00608
6.17400 0.07842
6.17600 -0.03534
6.17800 0.05368
6.18000 0.00313
6.18200 0.14225
6.18400 -0.03669
6.18600 -0.07108
6.18800 0.08345
6.19000 -0.02217
6.19200 -0.00601
6.19400 0.05569
6.19600 0.03585
6.19800 -0.06805
6.20000 0.05225
6.20200 0.00328
6.20400 -0.08947
6.20600 0.03782
6.20800 0.06131
6.21000 -0.00010
6.21200 0.01941
6.21400 -0.01833
6.21600 -0.02080
6.21800 0.01064
6.22000 0.00994
6.22200 0.04396
6.22400 0.04788
6.22600 0.01651
6.22800 -0.02855
6.23000 -0.02517
6.23200 -0.01994
6.23400 -0.00102
6.23600 0.02483
6.23800 -0.03404
6.24000 0.09182
6.24200 -0.06108
6.24400 0.11041
6.24600 0.00333
6.24800 -0.01595
6.25000 0.08413
6.25200 0.10260
6.25400 0.00520
6.25600 0.02394
6.25800 -0.05884
6.26000 0.04639
6.26200 0.07097
6.26400 0.02654
6.26600 0.07125
6.26800 0.09361
6.27000 -0.15954
6.27200 -0.08214
6.27400 -0.03747
6.27600 0.01787
6.27800 0.05986
6.28000 -0.04574
6.28200 -0.02237
6.28400 -0.03086
6.28600 -0.12185
6.28800 0.11276
6.29000 -0.04221
6.29200 0.03950
6.29400 -0.06267
6.29600 -0.12884
6.29800 0.00562
6.30000 -0.01955
6.30200 0.13949
6.30400 -0.04669
6.30600 0.02976
6.30800 -0.14004
6.31000 0.00261
6.31200 -0.01432
6.31400 0.06448
6.31600 0.03514
6.31800 0.00840
6.32000 -0.03052
6.32200 -0.04546
6.32400 -0.03171
6.32600 0.05006
6.32800 0.08944
6.33000 0.12073
6.33200 0.05023
6.33400 0.08695
6.33600 0.01924
6.33800 -0.00160
6.34000 0.00110
6.34200 0.16847
6.34400 -0.05065
6.34600 -0.06264
6.34800 -0.13241
6.35000 0.01327
6.35200 -0.02461
6.35400 -0.07501
6.35600 -0.03703
6.35800 0.08050
6.36000 -0.05536
6.36200 -0.00257
6.36400 -0.05997
6.36600 0.00497
6.36800 0.02698
6.37000 0.02146
6.37200 0.02471
6.37400 0.05107
6.37600 0.06590
6.37800 0.00367
6.38000 -0.07149
6.38200 -0.07713
6.38400 -0.01000
6.38600 -0.00104
6.38800 0.03197
6.39000 -0.01727
6.39200 -0.00337
6.39400 0.04125
6.39600 -0.03597
6.39800 -0.06005
6.40000 0.04051
6.40200 -0.09140
6.40400 0.04996
6.40600 0.07305
6.40800 -0.12401
6.41000 -0.03048
6.41200 -0.05426
6.41400 0.09336
6.41600 0.06297
6.41800 0.00299
6.42000 -0.02200
6.42200 -0.05125
6.42400 0.00662
6.42600 0.09245
6.42800 -0.08034
6.43000 0.10382
6.43200 0.05186
6.43400 -0.05614
6.43600 -0.08998
6.43800 -0.02559
6.44000 0.03184
6.44200 0.04681
6.44400 -0.02699
6.44600 -0.01696
6.44800 0.02371
6.45000 0.03838
6.45200 0.06752
6.45400 0.05031
6.45600 -0.00764
6.45800 -0.02542
6.46000 0.11191
6.46200 -0.00470
6.46400 0.09235
6.46600 -0.03194
6.46800 -0.02589
6.47000 0.00337
6.47200 0.01112
6.47400 0.05476
6.47600 -0.03251
6.47800 -0.06575
6.48000 -0.00502
6.48200 -0.06909
6.48400 0.00762
6.48600 -0.13625
6.48800 -0.12067
6.49000 -0.00716
6.49200 -0.06311
6.49400 -0.02617
6.49600 -0.02581
6.49800 0.01093
6.50000 -0.05463
6.50200 0.06929
6.50400 0.01495
6.50600 0.08850
6.50800 0.02058
6.51000 -0.07263
6.51200 0.14373
6.51400 -0.03488
6.51600 0.04863
6.51800 -0.01653
6.52000 -0.02461
6.52200 -0.10213
6.52400 -0.02916
6.52600 0.01311
6.52800 -0.03391
6.53000 -0.07622
6.53200 0.03894
6.53400 -0.09918
6.53600 0.01957
6.53800 -0.02086
6.54000 0.05318
6.54200 0.08314
6.54400 0.05363
6.54600 0.09644
6.54800 0.13906
6.55000 -0.07709
6.55200 0.01377
6.55400 0.09435
6.55600 -0.06889
6.55800 -0.02141
6.56000 -0.09374
6.56200 -0.00488
6.56400 -0.03456
6.56600 -0.02361
6.56800 0.03193
6.57000 -0.03957
6.57200 0.11085
6.57400 0.07761
6.57600 -0.05418
6.57800 0.03589
6.58000 -0.01561
6.58200 -0.09558
6.58400 -0.03268
6.58600 -0.01663
6.58800 0.06477
6.59000 -0.07613
6.59200 0.02542
6.59400 0.08421
6.59600 -0.00677
6.59800 -0.01043
6.60000 -0.13455
6.60200 -0.10913
6.60400 0.15330
6.60600 0.00642
6.60800 -0.10707
6.61000 0.11890
6.61200 -0.05608
6.61400 0.00644
6.61600 -0.06669
6.61800 0.03001
6.62000 0.00814
6.62200 0.13339
6.62400 0.01039
6.62600 -0.11213
6.62800 0.00077
6.63000 -0.07317
6.63200 0.02683
6.63400 0.03532
6.63600 -0.02704
6.63800 0.01759
6.64000 0.02839
6.64200 -0.03935
6.64400 -0.00968
6.64600 -0.05392
6.64800 0.08562
6.65000 -0.00477
6.65200 -0.03057
6.65400 0.02742
6.65600 0.07136
6.65800 0.04757
6.66000 0.01229
6.66200 -0.01033
6.66400 -0.04362
6.66600 -0.08714
6.66800 0.04238
6.67000 0.00664
6.67200 -0.08596
6.67400 -0.09869
6.67600 -0.12051
6.67800 -0.01272
6.68000 0.04899
6.68200 -0.04854
6.68400 0.00266
6.68600 -0.05873
6.68800 0.02973
6.69000 0.06618
6.69200 -0.04201
6.69400 0.10480
6.69600 -0.00697
6.69800 -0.03223
6.70000 0.12081
6.70200 0.03747
6.70400 -0.00699
6.70600 0.05355
6.70800 -0.07428
6.71000 0.18093
6.71200 0.62182
6.71400 1.13794
6.71600 1.50901
6.71800 1.45863
6.72000 0.68711
6.72200 0.23637
6.72400 0.04285
6.72600 -0.05230
6.72800 0.03185
6.73000 -0.05289
6.73200 0.01865
6.73400 0.09567
6.73600 -0.06714
6.73800 0.03855
6.74000 -0.00073
6.74200 -0.07801
6.74400 0.03356
6.74600 -0.00259
6.74800 0.00071
6.75000 -0.02264
6.75200 -0.06104
6.75400 0.03026
6.75600 -0.01250
6.75800 -0.16882
6.76000 0.01707
6.76200 0.10601
6.76400 -0.00324
6.76600 0.09262
6.76800 -0.01654
6.77000 -0.01431
6.77200 -0.04382
6.77400 0.08899
6.77600 -0.08017
6.77800 0.09641
6.78000 0.06191
6.78200 0.02667
6.78400 -0.01868
6.78600 0.06552
6.78800 -0.04955
6.79000 0.04401
6.79200 -0.03394
6.79400 0.12504
6.79600 -0.03373
6.79800 -0.05284
6.80000 -0.09610
6.80200 -0.02749
6.80400 0.04138
6.80600 -0.01881
6.80800 0.04507
6.81000 0.00988
6.81200 0.02405
6.81400 -0.00238
6.81600 -0.04562
6.81800 -0.00531
6.82000 -0.15010
6.82200 0.06029
6.82400 0.02529
6.82600 0.06395
6.82800 -0.00148
6.83000 0.00344
6.83200 0.01464
6.83400 -0.03989
6.83600 0.05008
6.83800 0.01219
6.84000 -0.04090
6.84200 0.07519
6.84400 0.03946
6.84600 -0.00357
6.84800 -0.01955
6.85000 0.02451
6.85200 0.09394
6.85400 -0.09388
6.85600 0.03496
6.85800 -0.01550
6.86000 0.07882
6.86200 -0.00221
6.86400 0.02550
6.86600 -0.02319
6.86800 -0.01759
6.87000 0.10856
6.87200 -0.00626
6.87400 0.05888
6.87600 -0.02064
6.87800 -0.01134
6.88000 -0.05873
6.88200 -0.02869
6.88400 -0.05021
6.88600 -0.02603
6.88800 -0.12809
6.89000 0.09842
6.89200 -0.03551
6.89400 -0.12760
6.89600 -0.00962
6.89800 -0.03713
6.90000 0.04437
6.90200 -0.05512
6.90400 0.04519
6.90600 0.02901
6.90800 -0.01494
6.91000 -0.07505
6.91200 0.00067
6.91400 0.08299
6.91600 -0.04531
6.91800 -0.10153
6.92000 -0.09392
6.92200 -0.02466
6.92400 -0.02705
6.92600 0.02225
6.92800 0.05655
6.93000 -0.08525
6.93200 -0.00985
6.93400 -0.09972
6.93600 0.06997
6.93800 0.00405
6.94000 -0.01142
6.94200 -0.00301
6.94400 -0.06283
6.94600 0.06341
6.94800 -0.05662
6.95000 -0.03582
6.95200 0.00993
6.95400 -0.08699
6.95600 0.04913
6.95800 0.01797
6.96000 -0.06021
6.96200 -0.01756
6.96400 -0.03551
6.96600 0.05641
6.96800 0.02663
6.97000 -0.02755
6.97200 -0.03885
6.97400 -0.02113
6.97600 0.04139
6.97800 -0.01863
6.98000 -0.02306
6.98200 0.18338
6.98400 -0.03394
6.98600 -0.04915
6.98800 -0.03895
6.99000 0.10387
6.99200 -0.00922
6.99400 0.10893
6.99600 0.01441
6.99800 -0.09104
7.00000 -0.04163
7.00200 0.09473
7.00400 0.01459
7.00600 0.03305
7.00800 0.03381
7.01000 -0.00646
7.01200 0.00068
7.01400 0.05520
7.01600 -0.02126
7.01800 -0.03079
7.02000 -0.02635
7.02200 0.09152
7.02400 -0.08500
7.02600 -0.07704
7.02800 -0.01289
7.03000 -0.01170
7.03200 -0.05173
7.03400 -0.03021
7.03600 -0.04502
7.03800 0.06304
7.04000 0.00246
7.04200 0.02012
7.04400 0.09678
7.04600 -0.00854
7.04800 0.02841
7.05000 -0.02391
7.05200 -0.03912
7.05400 0.05518
7.05600 0.09481
7.05800 0.05353
7.06000 -0.02905
7.06200 -0.01272
7.06400 -0.03078
7.06600 -0.08143
7.06800 -0.00382
7.07000 -0.02125
7.07200 0.00934
7.07400 -0.15036
7.07600 0.10365
7.07800 0.02906
7.08000 -0.01745
7.08200 -0.05531
7.08400 0.04799
7.08600 -0.08646
7.08800 -0.01718
7.09000 0.01831
7.09200 -0.11737
7.09400 -0.04131
7.09600 -0.05118
7.09800 -0.01447
7.10000 -0.06128
7.10200 -0.00776
7.10400 -0.09444
7.10600 -0.00714
7.10800 -0.01412
7.11000 -0.03891
7.11200 0.00779
7.11400 -0.03113
7.11600 -0.02818
7.11800 -0.07845
7.12000 0.00236
7.12200 0.05419
7.12400 0.12417
7.12600 0.02519
7.12800 0.13368
7.13000 -0.04852
7.13200 0.07372
7.13400 0.05012
7.13600 0.04683
7.13800 -0.00928
7.14000 0.04221
7.14200 0.05249
7.14400 0.01388
7.14600 0.05965
7.14800 0.02486
7.15000 0.03768
7.15200 0.00924
7.15400 -0.05437
7.15600 0.00613
7.15800 0.01364
7.16000 -0.03943
7.16200 0.01791
7.16400 0.09642
7.16600 -0.05336
7.16800 -0.03076
7.17000 0.05317
7.17200 0.00629
7.17400 0.00249
7.17600 -0.05787
7.17800 -0.08527
7.18000 0.00561
7.18200 0.04895
7.18400 -0.05843
7.18600 0.04727
7.18800 0.00854
7.19000 0.09219
7.19200 -0.01945
7.19400 0.02562
7.19600 -0.09185
7.19800 -0.03519
7.20000 -0.03208
7.20200 0.03376
7.20400 -0.02885
7.20600 -0.11088
7.20800 -0.09942
7.21000 -0.03390
7.21200 -0.03387
7.21400 0.01715
7.21600 0.00923
7.21800 0.00150
7.22000 -0.00742
7.22200 0.00964
7.22400 0.00715
7.22600 0.02129
7.22800 -0.11448
7.23000 0.03179
7.23200 0.00954
7.23400 0.02307
7.23600 0.03482
7.23800 -0.07008
7.24000 0.05562
7.24200 0.00124
7.24400 -0.08528
7.24600 0.00377
7.24800 0.02480
7.25000 0.00500
7.25200 0.01317
7.25400 -0.04791
7.25600 -0.05201
7.25800 0.04579
7.26000 -0.02515
7.26200 0.03079
7.26400 -0.11319
7.26600 -0.01334
7.26800 0.01802
7.27000 0.01638
7.27200 -0.04530
7.27400 -0.03001
7.27600 0.06870
7.27800 -0.09352
7.28000 -0.00219
7.28200 0.00032
7.28400 0.02000
7.28600 -0.06327
7.28800 0.08041
7.29000 -0.09799
7.29200 0.03244
7.29400 0.01262
7.29600 -0.08340
7.29800 0.01559
7.30000 -0.00421
7.30200 -0.02348
7.30400 -0.10855
7.30600 -0.02833
7.30800 -0.07086
7.31000 -0.04850
7.31200 -0.06831
7.31400 -0.00963
7.31600 0.02154
7.31800 0.07830
7.32000 0.02025
7.32200 -0.07484
7.32400 -0.00475
7.32600 0.08213
7.32800 0.07103
7.33000 -0.11985
7.33200 0.10112
7.33400 -0.08189
7.33600 0.04162
7.33800 -0.00308
7.34000 0.06608
7.34200 -0.02247
7.34400 -0.04547
7.34600 0.00505
7.34800 -0.03631
7.35000 -0.03538
7.35200 -0.05929
7.35400 -0.04539
7.35600 0.03224
7.35800 -0.05080
7.36000 0.08894
7.36200 -0.00594
7.36400 0.03775
7.36600 0.06120
7.36800 0.06694
7.37000 -0.04077
7.37200 -0.11750
7.37400 0.03205
7.37600 0.04269
7.37800 -0.07393
7.38000 0.08378
7.38200 0.02346
7.38400 -0.08159
7.38600 0.03955
7.38800 -0.06414
7.39000 0.07539
7.39200 -0.02769
7.39400 -0.05948
7.39600 -0.00695
7.39800 -0.05915
7.40000 0.07937
7.40200 0.03774
7.40400 0.11882
7.40600 0.06962
7.40800 -0.01804
7.41000 -0.07118
7.41200 -0.02633
7.41400 -0.07344
7.41600 -0.06978
7.41800 0.08968
7.42000 0.04957
7.42200 0.05825
7.42400 0.09340
7.42600 -0.02249
7.42800 0.05745
7.43000 0.00033
7.43200 -0.04686
7.43400 -0.06672
7.43600 0.01770
7.43800 0.02968
7.44000 -0.05902
7.44200 -0.05851
7.44400 0.02846
7.44600 0.06723
7.44800 -0.03788
7.45000 -0.12520
7.45200 -0.14117
7.45400 0.05779
7.45600 -0.05632
7.45800 -0.08684
7.46000 -0.03940
7.46200 -0.02591
7.46400 -0.04914
7.46600 -0.02901
7.46800 0.03425
7.47000 0.03962
7.47200 0.00169
7.47400 -0.02793
7.47600 0.08547
7.47800 -0.01364
7.48000 0.08499
7.48200 0.01452
7.48400 0.00902
7.48600 0.01129
7.48800 -0.09419
7.49000 0.00270
7.49200 0.02202
7.49400 -0.00879
7.49600 0.01394
7.49800 -0.06481
7.50000 0.05302
7.50200 -0.10730
7.50400 -0.03606
7.50600 -0.04497
7.50800 -0.09500
7.51000 -0.04734
7.51200 -0.03607
7.51400 0.10951
7.51600 -0.07023
7.51800 0.10755
7.52000 0.00963
7.52200 -0.02145
7.52400 0.00118
7.52600 -0.04913
7.52800 0.12385
7.53000 0.00930
7.53200 -0.00242
7.53400 -0.04187
7.53600 -0.08740
7.53800 0.04930
7.54000 -0.00893
7.54200 -0.00296
7.54400 0.03890
7.54600 0.01038
7.54800 0.07300
7.55000 0.01138
7.55200 0.01856
7.55400 0.05845
7.55600 0.08705
7.55800 0.00286
7.56000 -0.02388
7.56200 -0.04438
7.56400 0.01501
7.56600 -0.09236
7.56800 -0.14374
7.57000 -0.07590
7.57200 -0.00990
7.57400 -0.01576
7.57600 0.11037
7.57800 0.04153
7.58000 0.01173
7.58200 -0.06718
7.58400 -0.00135
7.58600 -0.14643
7.58800 0.04757
7.59000 0.14790
7.59200 -0.07803
7.59400 0.04506
7.59600 0.00931
7.59800 -0.03272
7.60000 0.02130
7.60200 0.02034
7.60400 -0.06468
7.60600 0.25099
7.60800 0.70640
7.61000 1.16685
7.61200 1.46323
7.61400 1.10591
7.61600 0.57189
7.61800 0.22950
7.62000 -0.01399
7.62200 0.01209
7.62400 0.03855
7.62600 -0.01992
7.62800 0.08680
7.63000 -0.00506
7.63200 -0.01021
7.63400 -0.05937
7.63600 -0.07544
7.63800 0.01351
7.64000 -0.02562
7.64200 -0.06148
7.64400 -0.02802
7.64600 -0.08023
7.64800 -0.02749
7.65000 0.01431
7.65200 -0.03404
7.65400 -0.01897
7.65600 -0.01251
7.65800 0.06566
7.66000 0.05991
7.66200 -0.03020
7.66400 0.04448
7.66600 -0.02216
7.66800 -0.08662
7.67000 -0.03424
7.67200 0.02423
7.67400 0.00638
7.67600 -0.03967
7.67800 0.09839
7.68000 -0.09436
7.68200 -0.00286
7.68400 -0.06586
7.68600 0.01230
7.68800 0.00528
7.69000 -0.02904
7.69200 -0.05410
7.69400 -0.03492
7.69600 -0.07006
7.69800 -0.00065
7.70000 -0.11670
7.70200 0.08302
7.70400 -0.02716
7.70600 -0.06955
7.70800 0.02261
7.71000 -0.03380
7.71200 0.08806
7.71400 -0.00167
7.71600 0.02504
7.71800 -0.07331
7.72000 0.01904
7.72200 -0.00944
7.72400 0.00169
7.72600 -0.00394
7.72800 0.07131
7.73000 0.01781
7.73200 -0.05029
7.73400 -0.11857
7.73600 -0.00877
7.73800 0.06681
7.74000 0.11023
7.74200 -0.00620
7.74400 0.10098
7.74600 -0.05113
7.74800 0.00886
7.75000 0.04737
7.75200 0.03081
7.75400 0.02260
7.75600 -0.01149
7.75800 0.09894
7.76000 0.04120
7.76200 -0.05295
7.76400 -0.03379
7.76600 -0.05357
7.76800 -0.07520
7.77000 -0.03390
7.77200 0.01075
7.77400 0.05590
7.77600 0.13146
7.77800 -0.01772
7.78000 0.03739
7.78200 0.05262
7.78400 -0.05292
7.78600 0.02865
7.78800 -0.07494
7.79000 -0.12746
7.79200 -0.16624
7.79400 -0.06033
7.79600 0.00293
7.79800 0.04591
7.80000 0.06174
7.80200 0.02382
7.80400 0.03418
7.80600 -0.03143
7.80800 0.00842
7.81000 -0.02550
7.81200 -0.00119
7.81400 0.06657
7.81600 0.00166
7.81800 0.07254
7.82000 -0.01077
7.82200 -0.07376
7.82400 -0.11417
7.82600 0.12227
7.82800 -0.07630
7.83000 0.06038
7.83200 -0.08357
7.83400 0.06103
7.83600 0.06915
7.83800 -0.09614
7.84000 -0.09181
7.84200 0.02183
7.84400 -0.00181
7.84600 0.03829
7.84800 -0.02097
7.85000 0.07682
7.85200 0.01570
7.85400 -0.02057
7.85600 0.07601
7.85800 -0.00230
7.86000 -0.05305
7.86200 -0.00076
7.86400 0.03979
7.86600 -0.00864
7.86800 0.02180
7.87000 0.04704
7.87200 -0.06727
7.87400 0.01080
7.87600 0.09721
7.87800 0.03580
7.88000 0.12157
7.88200 -0.00100
7.88400 -0.05504
7.88600 0.02603
7.88800 0.04496
7.89000 0.03719
7.89200 0.13251
7.89400 -0.08177
7.89600 -0.05655
7.89800 0.06443
7.90000 -0.01139
7.90200 -0.05349
7.90400 -0.06656
7.90600 -0.01501
7.90800 0.00247
7.91000 0.10999
7.91200 0.01978
7.91400 -0.02827
7.91600 -0.07380
7.91800 0.00400
7.92000 -0.13203
7.92200 0.02237
7.92400 -0.06090
7.92600 0.01654
7.92800 -0.10318
7.93000 0.07369
7.93200 0.07046
7.93400 0.06223
7.93600 0.01777
7.93800 0.04797
7.94000 0.00584
7.94200 -0.02992
7.94400 0.03677
7.94600 -0.05066
7.94800 0.05231
7.95000 0.01312
7.95200 -0.06762
7.95400 0.05462
7.95600 -0.00686
7.95800 -0.08352
7.96000 0.06265
7.96200 0.06818
7.96400 0.01312
7.96600 0.00369
7.96800 0.09035
7.97000 0.00745
7.97200 0.10923
7.97400 0.03151
7.97600 0.03591
7.97800 0.02016
7.98000 -0.00451
7.98200 -0.05038
7.98400 0.03155
7.98600 -0.00481
7.98800 -0.04701
7.99000 0.07656
7.99200 0.01870
7.99400 -0.03743
7.99600 -0.06079
7.99800 -0.03360
8.00000 0.02235
8.00200 0.03420
8.00400 0.01599
8.00600 0.01682
8.00800 -0.01584
8.01000 0.02092
8.01200 0.00340
8.01400 0.06736
8.01600 -0.05641
8.01800 -0.00901
8.02000 0.01448
8.02200 0.04854
8.02400 -0.03171
8.02600 0.02314
8.02800 -0.08846
8.03000 -0.07137
8.03200 0.03295
8.03400 0.01688
8.03600 0.01625
8.03800 -0.05345
8.04000 0.10545
8.04200 0.02387
8.04400 -0.02505
8.04600 0.09284
8.04800 -0.00857
8.05000 -0.13771
8.05200 0.08767
8.05400 -0.04098
8.05600 -0.00870
8.05800 0.04021
8.06000 0.02276
8.06200 -0.07326
8.06400 0.11382
8.06600 -0.19109
8.06800 0.07039
8.07000 -0.04921
8.07200 -0.00259
8.07400 0.02403
8.07600 0.01305
8.07800 0.06856
8.08000 -0.10418
8.08200 0.04200
8.08400 0.04533
8.08600 0.05750
8.08800 -0.01054
8.09000 -0.07818
8.09200 0.05889
8.09400 0.09691
8.09600 0.01953
8.09800 -0.02381
8.10000 0.07211
8.10200 0.21338
8.10400 0.07487
8.10600 0.01321
8.10800 0.02764
8.11000 0.03935
8.11200 -0.00918
8.11400 -0.04413
8.11600 0.05198
8.11800 -0.06578
8.12000 0.11287
8.12200 0.04859
8.12400 0.08449
8.12600 -0.07121
8.12800 -0.05112
8.13000 -0.03853
8.13200 -0.06526
8.13400 0.02667
8.13600 -0.04107
8.13800 -0.05296
8.14000 -0.04270
8.14200 -0.06701
8.14400 0.03988
8.14600 0.06148
8.14800 0.03099
8.15000 -0.05386
8.15200 -0.06845
8.15400 0.10933
8.15600 -0.05140
8.15800 0.09666
8.16000 -0.01643
8.16200 -0.06342
8.16400 -0.05246
8.16600 -0.02335
8.16800 0.01445
8.17000 -0.02221
8.17200 -0.04344
8.17400 0.13561
8.17600 0.04982
8.17800 0.01643
8.18000 0.00184
8.18200 -0.07981
8.18400 -0.10705
8.18600 0.03455
8.18800 0.03979
8.19000 0.01964
8.19200 0.00904
8.19400 -0.08034
8.19600 0.10406
8.19800 -0.02972
8.20000 -0.11416
8.20200 -0.10536
8.20400 0.06037
8.20600 -0.17171
8.20800 0.02138
8.21000 0.02413
8.21200 0.00260
8.21400 -0.02445
8.21600 -0.05146
8.21800 -0.02981
8.22000 0.06163
8.22200 0.00380
8.22400 -0.04053
8.22600 0.04585
8.22800 -0.03844
8.23000 0.00034
8.23200 0.06722
8.23400 0.05835
8.23600 0.04705
8.23800 0.09815
8.24000 -0.02596
8.24200 -0.03826
8.24400 -0.02172
8.24600 -0.06436
8.24800 -0.06071
8.25000 0.00874
8.25200 -0.11806
8.25400 -0.03840
8.25600 -0.00268
8.25800 -0.02336
8.26000 0.00391
8.26200 -0.01716
8.26400 -0.04103
8.26600 -0.05790
8.26800 -0.01635
8.27000 -0.01415
8.27200 -0.07821
8.27400 0.11122
8.27600 -0.04560
8.27800 0.08409
8.28000 -0.03781
8.28200 0.03455
8.28400 0.02158
8.28600 -0.05299
8.28800 0.08599
8.29000 0.00368
8.29200 0.10814
8.29400 0.00227
8.29600 0.04403
8.29800 -0.13362
8.30000 -0.01508
8.30200 -0.02519
8.30400 0.11650
8.30600 0.02635
8.30800 -0.08139
8.31000 0.10820
8.31200 -0.02684
8.31400 0.02010
8.31600 0.07612
8.31800 -0.04544
8.32000 0.10880
8.32200 -0.08875
8.32400 -0.04677
8.32600 -0.06034
8.32800 0.08077
8.33000 0.09906
8.33200 -0.02236
8.33400 0.02115
8.33600 -0.12888
8.33800 0.06795
8.34000 0.04702
8.34200 -0.09066
8.34400 -0.05572
8.34600 -0.06670
8.34800 0.02661
8.35000 -0.00433
8.35200 0.02416
8.35400 -0.00509
8.35600 -0.03629
8.35800 -0.03934
8.36000 -0.03710
8.36200 -0.11998
8.36400 0.03924
8.36600 0.03801
8.36800 -0.02539
8.37000 -0.05070
8.37200 0.01114
8.37400 0.04920
8.37600 -0.10792
8.37800 0.09289
8.38000 -0.02312
8.38200 -0.12028
8.38400 0.00069
8.38600 0.02562
8.38800 -0.00259
8.39000 -0.01092
8.39200 -0.06139
8.39400 0.11943
8.39600 -0.03383
8.39800 -0.00721
8.40000 0.01323
8.40200 -0.03807
8.40400 -0.01480
8.40600 -0.08359
8.40800 0.03743
8.41000 -0.04272
8.41200 -0.03397
8.41400 -0.03017
8.41600 -0.06006
8.41800 -0.06210
8.42000 -0.02448
8.42200 -0.14387
8.42400 0.04936
8.42600 0.04340
8.42800 -0.04080
8.43000 -0.00856
8.43200 0.06679
8.43400 -0.00188
8.43600 0.10191
8.43800 -0.00135
8.44000 0.04990
8.44200 -0.01796
8.44400 0.09003
8.44600 0.04130
8.44800 -0.02140
8.45000 -0.00841
8.45200 -0.00790
8.45400 0.09691
8.45600 0.01451
8.45800 0.01909
8.46000 0.00140
8.46200 0.08573
8.46400 0.18121
8.46600 -0.07158
8.46800 -0.00494
8.47000 -0.06541
8.47200 -0.01065
8.47400 0.05746
8.47600 -0.01795
8.47800 0.06860
8.48000 -0.00569
8.48200 -0.09205
8.48400 -0.02644
8.48600 -0.02269
8.48800 -0.02365
8.49000 -0.02564
8.49200 -0.00084
8.49400 0.00485
8.49600 0.10696
8.49800 -0.00643
8.50000 0.04275
8.50200 0.26488
8.50400 0.64463
8.50600 1.25801
8.50800 1.54221
8.51000 1.11823
8.51200 0.40305
8.51400 0.11332
8.51600 0.08807
8.51800 -0.01337
8.52000 0.02246
8.52200 -0.11810
8.52400 -0.06949
8.52600 0.04601
8.52800 0.24671
8.53000 -0.09353
8.53200 0.03214
8.53400 -0.08854
8.53600 -0.02188
8.53800 0.06606
8.54000 0.00640
8.54200 0.07670
8.54400 -0.03373
8.54600 0.02442
8.54800 0.01210
8.55000 0.06846
8.55200 -0.02157
8.55400 0.09851
8.55600 -0.01306
8.55800 0.01751
8.56000 0.07207
8.56200 -0.09765
8.56400 -0.00286
8.56600 -0.07930
8.56800 0.07025
8.57000 0.04052
8.57200 0.03224
8.57400 -0.07432
8.57600 -0.03805
8.57800 0.02349
8.58000 -0.00178
8.58200 -0.12362
8.58400 0.08056
8.58600 -0.03221
8.58800 0.02589
8.59000 0.03542
8.59200 -0.07943
8.59400 -0.03706
8.59600 0.04798
8.59800 -0.00808
8.60000 -0.04680
8.60200 -0.03145
8.60400 -0.06070
8.60600 -0.07588
8.60800 0.04892
8.61000 -0.04065
8.61200 0.09707
8.61400 -0.05193
8.61600 0.05234
8.61800 0.01927
8.62000 0.04255
8.62200 -0.13333
8.62400 -0.02142
8.62600 0.07443
8.62800 -0.05776
8.63000 0.12235
8.63200 0.00340
8.63400 0.07659
8.63600 0.01228
8.63800 -0.05112
8.64000 0.01741
8.64200 0.05279
8.64400 0.00110
8.64600 -0.13674
8.64800 0.08404
8.65000 -0.07512
8.65200 -0.00346
8.65400 -0.00146
8.65600 -0.03601
8.65800 -0.02031
8.66000 -0.10379
8.66200 0.00869
8.66400 0.03382
8.66600 -0.06871
8.66800 0.07088
8.67000 -0.05644
8.67200 -0.00985
8.67400 0.03732
8.67600 -0.17706
8.67800 -0.06851
8.68000 -0.03612
8.68200 -0.10117
8.68400 0.06693
8.68600 0.04864
8.68800 0.00427
8.69000 0.01905
8.69200 0.12279
8.69400 -0.08764
8.69600 -0.06130
8.69800 -0.05706
8.70000 -0.03297
8.70200 0.12356
8.70400 0.02217
8.70600 -0.02440
8.70800 -0.01890
8.71000 -0.08270
8.71200 -0.02708
8.71400 0.02329
8.71600 0.04763
8.71800 -0.00744
8.72000 0.09773
8.72200 -0.00098
8.72400 0.02564
8.72600 -0.00031
8.72800 0.00335
8.73000 -0.01528
8.73200 -0.03429
8.73400 -0.01488
8.73600 -0.00969
8.73800 0.06459
8.74000 0.00940
8.74200 -0.01990
8.74400 0.04489
8.74600 -0.02760
8.74800 -0.07150
8.75000 -0.10445
8.75200 0.08655
8.75400 0.10236
8.75600 -0.06070
8.75800 -0.01438
8.76000 -0.04597
8.76200 -0.04881
8.76400 -0.07552
8.76600 -0.03147
8.76800 0.06858
8.77000 0.03480
8.77200 0.01233
8.77400 -0.04474
8.77600 0.03476
8.77800 -0.04180
8.78000 -0.03334
8.78200 0.08130
8.78400 0.16679
8.78600 0.05851
8.78800 -0.02005
8.79000 0.02221
8.79200 0.03192
8.79400 0.00195
8.79600 0.01965
8.79800 -0.11117
8.80000 -0.02395
8.80200 -0.01350
8.80400 0.01774
8.80600 0.02856
8.80800 -0.02636
8.81000 -0.00810
8.81200 0.01956
8.81400 0.06789
8.81600 -0.02223
8.81800 0.02622
8.82000 -0.06020
8.82200 0.02145
8.82400 0.02580
8.82600 -0.04214
8.82800 -0.03510
8.83000 -0.01343
8.83200 -0.07024
8.83400 0.00683
8.83600 -0.06839
8.83800 0.07569
8.84000 0.04348
8.84200 0.10128
8.84400 0.04515
8.84600 0.05841
8.84800 0.07889
8.85000 -0.04094
8.85200 0.07581
8.85400 -0.02908
8.85600 0.13001
8.85800 -0.02371
8.86000 0.07643
8.86200 0.04586
8.86400 0.04152
8.86600 -0.10687
8.86800 -0.01924
8.87000 0.03839
8.87200 0.09136
8.87400 -0.01566
8.87600 -0.02023
8.87800 -0.08185
8.88000 -0.00295
8.88200 0.00745
8.88400 0.02210
8.88600 0.04276
8.88800 0.00243
8.89000 -0.03810
8.89200 -0.04355
8.89400 -0.03221
8.89600 -0.02188
8.89800 -0.10061
8.90000 0.08994
8.90200 0.00771
8.90400 0.04562
8.90600 0.10844
8.90800 -0.03096
8.91000 0.02714
8.91200 -0.05440
8.91400 0.01165
8.91600 0.11249
8.91800 -0.01812
8.92000 0.06001
8.92200 -0.01142
8.92400 0.02398
8.92600 0.01198
8.92800 0.00155
8.93000 0.02098
8.93200 -0.01096
8.93400 0.05290
8.93600 -0.06210
8.93800 0.04353
8.94000 -0.09918
8.94200 -0.01655
8.94400 -0.08373
8.94600 0.00588
8.94800 -0.04605
8.95000 0.08698
8.95200 -0.00028
8.95400 -0.02803
8.95600 -0.01577
8.95800 0.05078
8.96000 0.02325
8.96200 0.04869
8.96400 0.03582
8.96600 0.04711
8.96800 -0.05306
8.97000 -0.03922
8.97200 0.01513
8.97400 -0.03452
8.97600 0.04106
8.97800 0.06762
8.98000 -0.00020
8.98200 -0.09232
8.98400 -0.01124
8.98600 -0.07077
8.98800 0.09970
8.99000 0.00057
8.99200 0.05448
8.99400 0.03713
8.99600 0.00682
8.99800 -0.02460
9.00000 0.07450
9.00200 0.01825
9.00400 -0.13316
9.00600 -0.03985
9.00800 0.03667
9.01000 0.19608
9.01200 -0.02312
9.01400 0.00068
9.01600 0.10793
9.01800 -0.05609
9.02000 0.05720
9.02200 0.05199
9.02400 0.01541
9.02600 -0.04129
9.02800 -0.00772
9.03000 0.10723
9.03200 0.00530
9.03400 -0.06121
9.03600 0.00764
9.03800 -0.01793
9.04000 0.12160
9.04200 -0.00478
9.04400 -0.04816
9.04600 0.05801
9.04800 0.09316
9.05000 0.07284
9.05200 -0.06587
9.05400 -0.02430
9.05600 -0.11071
9.05800 -0.03544
9.06000 -0.02062
9.06200 -0.03447
9.06400 0.03229
9.06600 0.05583
9.06800 0.00164
9.07000 -0.02425
9.07200 0.00731
9.07400 -0.02729
9.07600 0.09094
9.07800 -0.02849
9.08000 0.13690
9.08200 -0.04891
9.08400 -0.01137
9.08600 -0.05980
9.08800 0.05101
9.09000 -0.01121
9.09200 -0.09628
9.09400 -0.07662
9.09600 -0.06583
9.09800 0.06149
9.10000 0.00751
9.10200 -0.01766
9.10400 -0.03894
9.10600 -0.10487
9.10800 0.08223
9.11000 0.05696
9.11200 -0.00701
9.11400 -0.02981
9.11600 -0.00795
9.11800 -0.11062
9.12000 -0.03247
9.12200 0.00914
9.12400 -0.11617
9.12600 -0.02184
9.12800 -0.07628
9.13000 0.08186
9.13200 0.01045
9.13400 -0.00844
9.13600 -0.07915
9.13800 -0.07954
9.14000 0.07806
9.14200 -0.02611
9.14400 0.03801
9.14600 0.04545
9.14800 0.07152
9.15000 0.11101
9.15200 0.07170
9.15400 0.02737
9.15600 0.06068
9.15800 0.09178
9.16000 0.00742
9.16200 -0.00455
9.16400 -0.00795
9.16600 0.03031
9.16800 0.01377
9.17000 0.03460
9.17200 0.08310
9.17400 0.09313
9.17600 -0.04219
9.17800 0.00104
9.18000 -0.01533
9.18200 -0.07540
9.18400 -0.03111
9.18600 0.02237
9.18800 -0.05417
9.19000 0.04228
9.19200 0.05528
9.19400 -0.01795
9.19600 0.04870
9.19800 -0.11414
9.20000 -0.00770
9.20200 -0.09827
9.20400 0.10914
9.20600 -0.14005
9.20800 0.08454
9.21000 -0.09400
9.21200 -0.02958
9.21400 0.00179
9.21600 0.05771
9.21800 0.03466
9.22000 -0.00132
9.22200 -0.08812
9.22400 0.02286
9.22600 0.04781
9.22800 0.01905
9.23000 0.00489
9.23200 0.00341
9.23400 0.03052
9.23600 0.02688
9.23800 0.05453
9.24000 0.06231
9.24200 0.02030
9.24400 0.00658
9.24600 -0.03357
9.24800 -0.04192
9.25000 0.01954
9.25200 -0.08686
9.25400 -0.05227
9.25600 0.05979
9.25800 0.01254
9.26000 0.08713
9.26200 0.10598
9.26400 0.03575
9.26600 -0.13623
9.26800 0.00401
9.27000 -0.05445
9.27200 -0.03022
9.27400 0.00706
9.27600 -0.03464
9.27800 0.01764
9.28000 0.10686
9.28200 0.01740
9.28400 0.02539
9.28600 0.05472
9.28800 0.05513
9.29000 -0.01329
9.29200 -0.04563
9.29400 0.04713
9.29600 0.08881
9.29800 0.06760
9.30000 0.00284
9.30200 -0.00257
9.30400 0.05058
9.30600 0.08383
9.30800 0.08400
9.31000 -0.03100
9.31200 0.01156
9.31400 -0.02731
9.31600 -0.06331
9.31800 -0.01997
9.32000 -0.00698
9.32200 -0.02697
9.32400 -0.01276
9.32600 -0.11904
9.32800 -0.02993
9.33000 -0.08904
9.33200 0.01815
9.33400 0.01412
9.33600 -0.06654
9.33800 -0.02340
9.34000 -0.12028
9.34200 0.07173
9.34400 -0.04337
9.34600 0.02844
9.34800 0.02089
9.35000 0.06225
9.35200 -0.01436
9.35400 0.00927
9.35600 -0.07709
9.35800 0.01497
9.36000 0.01368
9.36200 0.16587
9.36400 -0.03120
9.36600 -0.04013
9.36800 0.05914
9.37000 -0.00150
9.37200 0.00106
9.37400 -0.08159
9.37600 0.07582
9.37800 0.08033
9.38000 0.05805
9.38200 -0.00946
9.38400 -0.04501
9.38600 0.05673
9.38800 0.02102
9.39000 0.06420
9.39200 0.00285
9.39400 0.09955
9.39600 0.09848
9.39800 0.41361
9.40000 0.87922
9.40200 1.35081
9.40400 1.42437
9.40600 0.81445
9.40800 0.38768
9.41000 0.10451
9.41200 -0.04164
9.41400 -0.04259
9.41600 -0.00645
9.41800 -0.07846
9.42000 0.04802
9.42200 -0.02044
9.42400 -0.07949
9.42600 0.09350
9.42800 -0.02045
9.43000 -0.01464
9.43200 -0.03869
9.43400 -0.00584
9.43600 0.07995
9.43800 -0.03646
9.44000 -0.10434
9.44200 -0.03207
9.44400 0.03333
9.44600 0.03642
9.44800 -0.00095
9.45000 -0.01255
9.45200 -0.14329
9.45400 0.03465
9.45600 0.10963
9.45800 -0.04458
9.46000 0.05586
9.46200 0.01974
9.46400 -0.04231
9.46600 -0.02602
9.46800 -0.00218
9.47000 0.07390
9.47200 -0.04700
9.47400 0.02811
9.47600 -0.08785
9.47800 -0.01313
9.48000 0.02789
9.48200 -0.08559
9.48400 0.05117
9.48600 0.01125
9.48800 -0.01618
9.49000 0.02361
9.49200 0.09107
9.49400 0.03792
9.49600 0.02348
9.49800 -0.08298
9.50000 -0.11596
9.50200 -0.02209
9.50400 -0.02841
9.50600 -0.02235
9.50800 -0.07164
9.51000 -0.01468
9.51200 0.00991
9.51400 -0.02885
9.51600 -0.05000
9.51800 0.02768
9.52000 0.13146
9.52200 -0.02190
9.52400 0.01592
9.52600 0.04705
9.52800 -0.08853
9.53000 -0.03331
9.53200 -0.02665
9.53400 -0.02864
9.53600 -0.00728
9.53800 0.15183
9.54000 0.05968
9.54200 0.03015
9.54400 0.05778
9.54600 -0.01802
9.54800 0.10308
9.55000 0.03343
9.55200 0.04158
9.55400 0.01553
9.55600 -0.02265
9.55800 -0.07036
9.56000 -0.06389
9.56200 0.11092
9.56400 0.00200
9.56600 0.11673
9.56800 0.01252
9.57000 0.05254
9.57200 -0.07105
9.57400 -0.06178
9.57600 -0.07331
9.57800 0.03760
9.58000 0.00763
9.58200 0.03875
9.58400 -0.00262
9.58600 -0.01385
9.58800 -0.07977
9.59000 -0.05915
9.59200 0.04834
9.59400 -0.07681
9.59600 0.04285
9.59800 -0.08306
9.60000 -0.01592
9.60200 -0.12513
9.60400 0.04053
9.60600 0.01692
9.60800 -0.16608
9.61000 0.04603
9.61200 0.06005
9.61400 0.04543
9.61600 -0.08584
9.61800 0.05138
9.62000 -0.01377
9.62200 0.04911
9.62400 0.02670
9.62600 0.01983
9.62800 -0.02549
9.63000 -0.03087
9.63200 0.05769
9.63400 0.02227
9.63600 -0.09234
9.63800 -0.13784
9.64000 0.06763
9.64200 0.02981
9.64400 0.06317
9.64600 -0.04824
9.64800 -0.08722
9.65000 -0.05355
9.65200 0.00015
9.65400 0.03890
9.65600 0.04951
9.65800 -0.06098
9.66000 -0.05874
9.66200 -0.10959
9.66400 0.02425
9.66600 0.05548
9.66800 0.06009
9.67000 0.14614
9.67200 0.00847
9.67400 0.04162
9.67600 0.00258
9.67800 0.12979
9.68000 -0.02971
9.68200 -0.08096
9.68400 0.01279
9.68600 0.05019
9.68800 -0.02106
9.69000 -0.04475
9.69200 -0.09195
9.69400 0.02766
9.69600 0.08565
9.69800 -0.00252
9.70000 0.04441
9.70200 -0.15512
9.70400 0.01338
9.70600 -0.01107
9.70800 -0.08905
9.71000 0.01764
9.71200 -0.01160
9.71400 0.07145
9.71600 -0.01570
9.71800 -0.01900
9.72000 0.03770
9.72200 0.04886
9.72400 0.02758
9.72600 0.08172
9.72800 0.06683
9.73000 -0.03107
9.73200 -0.03539
9.73400 -0.12732
9.73600 0.13628
9.73800 0.03821
9.74000 0.08926
9.74200 -0.08963
9.74400 -0.06888
9.74600 0.05483
9.74800 -0.00233
9.75000 0.01845
9.75200 0.08178
9.75400 -0.03011
9.75600 -0.09454
9.75800 0.02234
9.76000 0.07093
9.76200 -0.06847
9.76400 -0.05759
9.76600 -0.01556
9.76800 0.02172
9.77000 -0.00939
9.77200 0.02633
9.77400 -0.00283
9.77600 -0.01002
9.77800 -0.00937
9.78000 -0.02527
9.78200 -0.05038
9.78400 0.02772
9.78600 0.04915
9.78800 -0.08978
9.79000 0.06913
9.79200 -0.22336
9.79400 -0.04652
9.79600 -0.02725
9.79800 0.02495
9.80000 0.04077
9.80200 -0.08899
9.80400 0.01698
9.80600 -0.03249
9.80800 0.12992
9.81000 0.10268
9.81200 0.00861
9.81400 0.01085
9.81600 -0.03928
9.81800 0.12285
9.82000 0.01663
9.82200 -0.01742
9.82400 -0.06512
9.82600 -0.01881
9.82800 0.00745
9.83000 0.00133
9.83200 0.03743
9.83400 -0.00456
9.83600 -0.07336
9.83800 -0.11169
9.84000 0.01034
9.84200 -0.03442
9.84400 -0.11334
9.84600 0.04186
9.84800 -0.11808
9.85000 -0.00088
9.85200 -0.01252
9.85400 0.09630
9.85600 0.01732
9.85800 0.02033
9.86000 -0.00970
9.86200 0.00252
9.86400 -0.07867
9.86600 0.02245
9.86800 -0.00576
9.87000 -0.03017
9.87200 -0.07218
9.87400 0.08868
9.87600 -0.00990
9.87800 0.03179
9.88000 0.04955
9.88200 0.07011
9.88400 -0.10685
9.88600 -0.00221
9.88800 -0.09948
9.89000 0.03647
9.89200 0.00079
9.89400 0.03787
9.89600 0.07072
9.89800 -0.03210
9.90000 0.05936
9.90200 -0.03559
9.90400 -0.04445
9.90600 0.08350
9.90800 -0.02316
9.91000 0.03990
9.91200 -0.05120
9.91400 -0.08266
9.91600 0.07567
9.91800 -0.04122
9.92000 0.03158
9.92200 -0.08627
9.92400 0.02043
9.92600 0.02552
9.92800 -0.00686
9.93000 -0.06519
9.93200 0.01010
9.93400 0.09330
9.93600 -0.03885
9.93800 -0.07464
9.94000 -0.14565
9.94200 -0.02475
9.94400 0.03849
9.94600 -0.05433
9.94800 0.00963
9.95000 0.00062
9.95200 -0.02843
9.95400 0.06113
9.95600 0.00044
9.95800 -0.00399
9.96000 -0.02194
9.96200 -0.01486
9.96400 0.09372
9.96600 0.09057
9.96800 -0.07443
9.97000 -0.06595
9.97200 -0.05451
9.97400 -0.02648
9.97600 -0.03363
9.97800 0.05943
9.98000 -0.04138
9.98200 -0.06345
9.98400 -0.03686
9.98600 -0.03565
9.98800 0.06624
9.99000 -0.02620
9.99200 -0.03796
9.99400 -0.04556
9.99600 -0.05354
9.99800 0.02157
